time energy SvN bondDim localEnergy 
0 -6.21861 0.189211 2 4 8 10 10 10 10 10 10 10 10 10 8 4 2 -0.491956 -0.377378 -0.414349 -0.403257 -0.406928 -0.405797 -0.406398 -0.406482 -0.406398 -0.405797 -0.406928 -0.403257 -0.414349 -0.377378 -0.491956 
0.1 -6.21861 0.189218 2 4 8 10 10 10 10 10 10 10 10 10 8 4 2 -0.491956 -0.377378 -0.414349 -0.403257 -0.406928 -0.405797 -0.406399 -0.406484 -0.406399 -0.405797 -0.406928 -0.403257 -0.414349 -0.377378 -0.491956 
0.2 -6.21864 0.189244 2 4 8 10 10 10 10 10 10 10 10 10 8 4 2 -0.491956 -0.377378 -0.414349 -0.403257 -0.406928 -0.405797 -0.406405 -0.406496 -0.406405 -0.405797 -0.406928 -0.403257 -0.414349 -0.377378 -0.491956 
0.3 -6.2187 0.189306 2 4 8 10 10 10 10 10 10 10 10 10 8 4 2 -0.491956 -0.377378 -0.414349 -0.403257 -0.406928 -0.405798 -0.40642 -0.406524 -0.40642 -0.405798 -0.406928 -0.403257 -0.414349 -0.377378 -0.491956 
0.4 -6.2188 0.18942 2 4 8 10 10 10 10 10 10 10 10 10 8 4 2 -0.491956 -0.377378 -0.414349 -0.403257 -0.406929 -0.405798 -0.406446 -0.406576 -0.406446 -0.405798 -0.406929 -0.403257 -0.414349 -0.377378 -0.491956 
0.5 -6.21897 0.189605 2 4 8 10 10 10 10 10 10 10 10 10 8 4 2 -0.491956 -0.377378 -0.414349 -0.403257 -0.406929 -0.405799 -0.406488 -0.406659 -0.406488 -0.405799 -0.406929 -0.403257 -0.414349 -0.377378 -0.491956 
0.6 -6.21922 0.189882 2 4 8 10 10 10 10 10 10 10 10 10 8 4 2 -0.491956 -0.377378 -0.414349 -0.403257 -0.406929 -0.4058 -0.406551 -0.406782 -0.406551 -0.4058 -0.406929 -0.403257 -0.414349 -0.377378 -0.491956 
0.7 -6.21958 0.190272 2 4 8 10 10 10 10 10 10 10 10 10 8 4 2 -0.491956 -0.377378 -0.414349 -0.403257 -0.40693 -0.405802 -0.406638 -0.406955 -0.406638 -0.405802 -0.40693 -0.403257 -0.414349 -0.377378 -0.491956 
0.8 -6.22005 0.190796 2 4 8 10 10 10 10 10 10 10 10 10 8 4 2 -0.491956 -0.377378 -0.414349 -0.403257 -0.406932 -0.405805 -0.406755 -0.407185 -0.406755 -0.405805 -0.406932 -0.403257 -0.414349 -0.377378 -0.491956 
0.9 -6.22066 0.191481 2 4 8 10 10 10 10 10 10 10 10 10 8 4 2 -0.491956 -0.377378 -0.414349 -0.403257 -0.406934 -0.40581 -0.406907 -0.407483 -0.406907 -0.40581 -0.406934 -0.403257 -0.414349 -0.377378 -0.491956 
1 -6.22144 0.192351 2 4 8 10 10 10 10 10 10 10 10 10 8 4 2 -0.491957 -0.377378 -0.414349 -0.403256 -0.406937 -0.405815 -0.407098 -0.407858 -0.407098 -0.405815 -0.406937 -0.403256 -0.414349 -0.377378 -0.491956 
1.1 -6.22239 0.193437 2 4 8 10 10 10 10 10 10 10 10 10 8 4 2 -0.491957 -0.377378 -0.414349 -0.403256 -0.406941 -0.405823 -0.407333 -0.408321 -0.407333 -0.405823 -0.406941 -0.403256 -0.414349 -0.377378 -0.491956 
1.2 -6.22356 0.194769 2 4 8 10 10 10 10 10 10 10 10 10 8 4 2 -0.491957 -0.377378 -0.414349 -0.403256 -0.406947 -0.405834 -0.407619 -0.408881 -0.407619 -0.405834 -0.406947 -0.403256 -0.414349 -0.377378 -0.491956 
1.3 -6.22496 0.196383 2 4 8 10 10 10 10 10 10 10 10 10 8 4 2 -0.491957 -0.377378 -0.414349 -0.403255 -0.406956 -0.405849 -0.407961 -0.409551 -0.407961 -0.405849 -0.406956 -0.403255 -0.414349 -0.377378 -0.491956 
1.4 -6.22663 0.198318 2 4 8 10 10 10 10 10 10 10 10 10 8 4 2 -0.491957 -0.377378 -0.414349 -0.403255 -0.406967 -0.40587 -0.408366 -0.410342 -0.408366 -0.40587 -0.406967 -0.403255 -0.414349 -0.377378 -0.491957 
1.5 -6.22858 0.200618 2 4 8 10 10 10 10 10 10 10 10 10 8 4 2 -0.491957 -0.377378 -0.414349 -0.403254 -0.406983 -0.405899 -0.408841 -0.411265 -0.408841 -0.405899 -0.406983 -0.403254 -0.414349 -0.377378 -0.491957 
1.6 -6.23087 0.203332 2 4 8 10 10 10 10 10 10 10 10 10 8 4 2 -0.491957 -0.377378 -0.414349 -0.403253 -0.407002 -0.405937 -0.409392 -0.412332 -0.409392 -0.405937 -0.407002 -0.403253 -0.414349 -0.377378 -0.491957 
1.7 -6.2335 0.206511 2 4 8 10 10 10 10 10 10 10 10 10 8 4 2 -0.491957 -0.377377 -0.414349 -0.403252 -0.407028 -0.405988 -0.410025 -0.413552 -0.410025 -0.405988 -0.407028 -0.403252 -0.414349 -0.377378 -0.491957 
1.8 -6.23653 0.21021 2 4 8 10 10 10 10 10 10 10 10 10 8 4 2 -0.491957 -0.377377 -0.414349 -0.40325 -0.407059 -0.406057 -0.410748 -0.414934 -0.410748 -0.406057 -0.407059 -0.40325 -0.414349 -0.377377 -0.491957 
1.9 -6.23997 0.214486 2 4 8 10 10 10 10 10 10 10 10 10 8 4 2 -0.491957 -0.377377 -0.41435 -0.403249 -0.407099 -0.406148 -0.411565 -0.416483 -0.411565 -0.406148 -0.407099 -0.403249 -0.41435 -0.377377 -0.491957 
2 -6.24385 0.219392 2 4 8 10 10 10 10 10 10 10 10 10 8 4 2 -0.491958 -0.377376 -0.414351 -0.403248 -0.407148 -0.406268 -0.412478 -0.418199 -0.412478 -0.406268 -0.407148 -0.403248 -0.414351 -0.377376 -0.491957 
2.1 -6.24819 0.224978 2 4 8 10 10 10 10 10 10 10 10 10 8 4 2 -0.491958 -0.377376 -0.414352 -0.403247 -0.407209 -0.406425 -0.41349 -0.420079 -0.41349 -0.406425 -0.407209 -0.403247 -0.414352 -0.377376 -0.491958 
2.2 -6.25299 0.231285 2 4 8 10 10 10 10 10 10 10 10 10 8 4 2 -0.491958 -0.377375 -0.414354 -0.403246 -0.407282 -0.406628 -0.414598 -0.42211 -0.414598 -0.406628 -0.407282 -0.403246 -0.414354 -0.377375 -0.491958 
2.3 -6.25826 0.238341 2 4 8 10 10 10 10 10 10 10 10 10 8 4 2 -0.491959 -0.377374 -0.414357 -0.403247 -0.407371 -0.406887 -0.415796 -0.424277 -0.415796 -0.406887 -0.407371 -0.403247 -0.414357 -0.377374 -0.491959 
2.4 -6.26398 0.246157 2 4 8 10 10 10 10 10 10 10 10 10 8 4 2 -0.49196 -0.377373 -0.41436 -0.403249 -0.40748 -0.407213 -0.417078 -0.426555 -0.417078 -0.407213 -0.40748 -0.403249 -0.41436 -0.377373 -0.49196 
2.5 -6.27014 0.254728 2 4 8 10 10 10 10 10 10 10 10 10 8 4 2 -0.491961 -0.377372 -0.414365 -0.403253 -0.407611 -0.40762 -0.418431 -0.428914 -0.418431 -0.40762 -0.407611 -0.403253 -0.414365 -0.377372 -0.491961 
2.6 -6.27671 0.264024 2 4 8 10 10 10 10 10 10 10 10 10 8 4 2 -0.491962 -0.37737 -0.414371 -0.403261 -0.407769 -0.408119 -0.419842 -0.43132 -0.419842 -0.408119 -0.407769 -0.403261 -0.414371 -0.37737 -0.491962 
2.7 -6.28366 0.273995 2 4 8 10 10 10 10 10 10 10 10 10 8 4 2 -0.491964 -0.377368 -0.414378 -0.403274 -0.40796 -0.408722 -0.421296 -0.433736 -0.421296 -0.408722 -0.40796 -0.403274 -0.414378 -0.377368 -0.491964 
2.8 -6.29096 0.284573 2 4 8 10 10 10 10 10 10 10 10 10 8 4 2 -0.491966 -0.377366 -0.414387 -0.403293 -0.40819 -0.409439 -0.422777 -0.436122 -0.422777 -0.409439 -0.40819 -0.403293 -0.414387 -0.377366 -0.491966 
2.9 -6.29857 0.295672 2 4 8 10 10 10 10 10 10 10 10 10 8 4 2 -0.491969 -0.377363 -0.414399 -0.403322 -0.408466 -0.410278 -0.42427 -0.438439 -0.42427 -0.410278 -0.408466 -0.403322 -0.414399 -0.377363 -0.491969 
3 -6.30647 0.307191 2 4 8 10 10 10 10 10 10 10 10 10 8 4 2 -0.491973 -0.37736 -0.414414 -0.403363 -0.408796 -0.411243 -0.425761 -0.440648 -0.425761 -0.411243 -0.408796 -0.403363 -0.414414 -0.37736 -0.491973 
3.1 -6.31461 0.319025 2 4 8 10 10 10 10 10 10 10 10 10 8 4 2 -0.491977 -0.377357 -0.414433 -0.403421 -0.409188 -0.412335 -0.427237 -0.442713 -0.427237 -0.412335 -0.409188 -0.403421 -0.414433 -0.377357 -0.491977 
3.2 -6.32297 0.331062 2 4 8 10 10 10 10 10 10 10 10 10 8 4 2 -0.491982 -0.377353 -0.414457 -0.403501 -0.409649 -0.413551 -0.428689 -0.444602 -0.428689 -0.413551 -0.409649 -0.403501 -0.414457 -0.377353 -0.491982 
3.3 -6.33152 0.343194 2 4 8 10 10 10 10 10 10 10 10 10 8 4 2 -0.491989 -0.377349 -0.414487 -0.403609 -0.410188 -0.414886 -0.43011 -0.446286 -0.43011 -0.414886 -0.410188 -0.403609 -0.414487 -0.377349 -0.491989 
3.4 -6.34024 0.355318 2 4 8 10 10 10 10 10 10 10 10 10 8 4 2 -0.491997 -0.377345 -0.414526 -0.403752 -0.410809 -0.41633 -0.431493 -0.447742 -0.431493 -0.41633 -0.410809 -0.403752 -0.414526 -0.377345 -0.491997 
3.5 -6.34912 0.367341 2 4 8 10 10 10 10 10 10 10 10 10 8 4 2 -0.492007 -0.37734 -0.414574 -0.403938 -0.411515 -0.417871 -0.432837 -0.448951 -0.432837 -0.417871 -0.411515 -0.403938 -0.414574 -0.37734 -0.492007 
3.6 -6.35812 0.37918 2 4 8 10 10 10 10 10 10 10 10 10 8 4 2 -0.492019 -0.377336 -0.414636 -0.404176 -0.412307 -0.419498 -0.434137 -0.449902 -0.434137 -0.419498 -0.412307 -0.404176 -0.414636 -0.377336 -0.492019 
3.7 -6.36724 0.390764 2 4 8 10 10 10 10 10 10 10 10 10 8 4 2 -0.492035 -0.377332 -0.414715 -0.404477 -0.413183 -0.421195 -0.435392 -0.450589 -0.435392 -0.421195 -0.413183 -0.404477 -0.414715 -0.377332 -0.492035 
3.8 -6.37647 0.402039 2 4 8 10 10 10 10 10 10 10 10 10 8 4 2 -0.492053 -0.37733 -0.414815 -0.404848 -0.414138 -0.422949 -0.436598 -0.451012 -0.436598 -0.422949 -0.414138 -0.404848 -0.414815 -0.37733 -0.492053 
3.9 -6.3858 0.412959 2 4 8 10 10 10 10 10 10 10 10 10 8 4 2 -0.492076 -0.37733 -0.414942 -0.405299 -0.415165 -0.424746 -0.437754 -0.451177 -0.437754 -0.424746 -0.415165 -0.405299 -0.414942 -0.37733 -0.492076 
4 -6.39521 0.423494 2 4 8 10 10 10 10 10 10 10 10 10 8 4 2 -0.492104 -0.377333 -0.415102 -0.405836 -0.416254 -0.426572 -0.438855 -0.451096 -0.438855 -0.426573 -0.416254 -0.405836 -0.415102 -0.377333 -0.492104 
4.1 -6.4047 0.433623 2 4 8 10 10 10 10 10 10 10 10 10 8 4 2 -0.492139 -0.37734 -0.415302 -0.406465 -0.417397 -0.428416 -0.439896 -0.450787 -0.439896 -0.428416 -0.417397 -0.406465 -0.415302 -0.37734 -0.492139 
4.2 -6.41426 0.443339 2 4 8 10 10 10 10 10 10 10 10 10 8 4 2 -0.492182 -0.377355 -0.415552 -0.407187 -0.418583 -0.430264 -0.440871 -0.450271 -0.440871 -0.430264 -0.418583 -0.407187 -0.415552 -0.377355 -0.492182 
4.3 -6.42388 0.452643 2 4 8 10 10 10 10 10 10 10 10 10 8 4 2 -0.492236 -0.377378 -0.415858 -0.408002 -0.419805 -0.432102 -0.441774 -0.449575 -0.441774 -0.432102 -0.419805 -0.408002 -0.415858 -0.377378 -0.492235 
4.4 -6.43357 0.461546 2 4 8 10 10 10 10 10 10 10 10 10 8 4 2 -0.492301 -0.377414 -0.416229 -0.408905 -0.421056 -0.433917 -0.4426 -0.448727 -0.4426 -0.433917 -0.421056 -0.408905 -0.416229 -0.377414 -0.492301 
4.5 -6.44331 0.470067 2 4 8 10 10 10 10 10 10 10 10 10 8 4 2 -0.492382 -0.377465 -0.416674 -0.40989 -0.422331 -0.435693 -0.443341 -0.44776 -0.443341 -0.435693 -0.422331 -0.40989 -0.416674 -0.377465 -0.492382 
4.6 -6.45311 0.478235 2 4 8 10 10 10 10 10 10 10 10 10 8 4 2 -0.492483 -0.377538 -0.417197 -0.410947 -0.423629 -0.437415 -0.443994 -0.446707 -0.443994 -0.437415 -0.423629 -0.410947 -0.417197 -0.377538 -0.492483 
4.7 -6.46296 0.486085 2 4 8 10 10 10 10 10 10 10 10 10 8 4 2 -0.492607 -0.377636 -0.417804 -0.412067 -0.424948 -0.439066 -0.444554 -0.4456 -0.444554 -0.439066 -0.424948 -0.412067 -0.417804 -0.377636 -0.492607 
4.8 -6.47286 0.493658 2 4 8 10 10 10 10 10 10 10 10 10 8 4 2 -0.49276 -0.377765 -0.418494 -0.413237 -0.42629 -0.44063 -0.445018 -0.444474 -0.445018 -0.44063 -0.42629 -0.413237 -0.418494 -0.377766 -0.49276 
4.9 -6.48281 0.500999 2 4 8 10 10 10 10 10 10 10 10 10 8 4 2 -0.492949 -0.377933 -0.419266 -0.414448 -0.427656 -0.442087 -0.445385 -0.44336 -0.445385 -0.442087 -0.427656 -0.414448 -0.419266 -0.377933 -0.492949 
5 -6.49279 0.508156 2 4 8 10 10 10 10 11 10 10 10 10 8 4 2 -0.493181 -0.378143 -0.420115 -0.415691 -0.429045 -0.443422 -0.445657 -0.442287 -0.445657 -0.443422 -0.429045 -0.415691 -0.420115 -0.378143 -0.493181 
5.1 -6.50282 0.515178 2 4 8 10 10 10 11 11 11 10 10 10 8 4 2 -0.493465 -0.378402 -0.421032 -0.416958 -0.430458 -0.444618 -0.445835 -0.441283 -0.445835 -0.444618 -0.430458 -0.416958 -0.421032 -0.378402 -0.493465 
5.2 -6.51288 0.522112 2 4 8 10 10 10 11 11 11 10 10 10 8 4 2 -0.493811 -0.378713 -0.422008 -0.418246 -0.431893 -0.445659 -0.445925 -0.440372 -0.445925 -0.445659 -0.431893 -0.418246 -0.422008 -0.378713 -0.493811 
5.3 -6.52297 0.529002 2 4 8 10 10 10 11 12 11 10 10 10 8 4 2 -0.49423 -0.379078 -0.42303 -0.41955 -0.433344 -0.446534 -0.445934 -0.439573 -0.445934 -0.446534 -0.433344 -0.41955 -0.42303 -0.379078 -0.49423 
5.4 -6.53308 0.535886 2 4 8 10 10 11 11 12 11 11 10 10 8 4 2 -0.494733 -0.379495 -0.424088 -0.42087 -0.434805 -0.447231 -0.445868 -0.438902 -0.445868 -0.447231 -0.434805 -0.42087 -0.424088 -0.379495 -0.494733 
5.5 -6.54321 0.542797 2 4 8 10 10 11 13 13 13 11 10 10 8 4 2 -0.495333 -0.379962 -0.42517 -0.422204 -0.436268 -0.447744 -0.445738 -0.438372 -0.445738 -0.447744 -0.436268 -0.422204 -0.42517 -0.379962 -0.495333 
5.6 -6.55334 0.549762 2 4 8 10 10 11 13 13 13 11 10 10 8 4 2 -0.496039 -0.380472 -0.426268 -0.423551 -0.43772 -0.44807 -0.445553 -0.437988 -0.445553 -0.44807 -0.43772 -0.423551 -0.426268 -0.380472 -0.496039 
5.7 -6.56345 0.556797 2 4 8 10 10 11 14 14 14 11 10 10 8 4 2 -0.496862 -0.381015 -0.427378 -0.424909 -0.43915 -0.448209 -0.445324 -0.437754 -0.445324 -0.448208 -0.43915 -0.424909 -0.427378 -0.381015 -0.496862 
5.8 -6.57352 0.563916 2 4 8 10 10 13 14 14 14 13 10 10 8 4 2 -0.497808 -0.38158 -0.428495 -0.426276 -0.440542 -0.448164 -0.445063 -0.437669 -0.445063 -0.448164 -0.440542 -0.426276 -0.428495 -0.38158 -0.497808 
5.9 -6.58354 0.571124 2 4 8 10 11 13 15 15 15 13 11 10 8 4 2 -0.498879 -0.382154 -0.429621 -0.427645 -0.441882 -0.447945 -0.44478 -0.437727 -0.44478 -0.447945 -0.441882 -0.427645 -0.429621 -0.382154 -0.498879 
6 -6.59346 0.57842 2 4 8 11 12 13 15 15 15 13 12 11 8 4 2 -0.500073 -0.382724 -0.43076 -0.429008 -0.443154 -0.447562 -0.444486 -0.437921 -0.444486 -0.447562 -0.443154 -0.429008 -0.43076 -0.382724 -0.500073 
6.1 -6.60324 0.585799 2 4 8 11 12 14 16 17 16 14 12 11 8 4 2 -0.501382 -0.383279 -0.431917 -0.430355 -0.444345 -0.44703 -0.44419 -0.438238 -0.44419 -0.44703 -0.444345 -0.430355 -0.431917 -0.383279 -0.501382 
6.2 -6.61283 0.59325 2 4 8 11 12 14 17 17 17 14 12 11 8 4 2 -0.502792 -0.383806 -0.433099 -0.431673 -0.445441 -0.446368 -0.443903 -0.438664 -0.443903 -0.446368 -0.445441 -0.431673 -0.433099 -0.383807 -0.502792 
6.3 -6.62218 0.600759 2 4 8 11 13 15 17 17 17 15 13 11 8 4 2 -0.504283 -0.3843 -0.434314 -0.432946 -0.446431 -0.445596 -0.443631 -0.439182 -0.443631 -0.445596 -0.446431 -0.432946 -0.434314 -0.3843 -0.504283 
6.4 -6.63124 0.608307 2 4 8 11 14 15 17 19 17 15 14 11 8 4 2 -0.50583 -0.384755 -0.43557 -0.434155 -0.447305 -0.444736 -0.443383 -0.439773 -0.443383 -0.444736 -0.447305 -0.434155 -0.43557 -0.384755 -0.50583 
6.5 -6.63993 0.615872 2 4 8 12 14 15 18 19 18 15 14 12 8 4 2 -0.507406 -0.385169 -0.436871 -0.435282 -0.448057 -0.44381 -0.443164 -0.440417 -0.443164 -0.44381 -0.448057 -0.435282 -0.436871 -0.385169 -0.507406 
6.6 -6.6482 0.623431 2 4 8 13 15 17 18 19 18 17 15 13 8 4 2 -0.508981 -0.385542 -0.438223 -0.436305 -0.448683 -0.442843 -0.442977 -0.441095 -0.442977 -0.442843 -0.448683 -0.436306 -0.438223 -0.385543 -0.508981 
6.7 -6.656 0.630955 2 4 8 13 15 17 19 20 19 17 15 13 8 4 2 -0.510528 -0.385878 -0.439628 -0.437205 -0.449183 -0.441857 -0.442828 -0.441783 -0.442828 -0.441858 -0.449182 -0.437206 -0.439628 -0.385878 -0.510528 
6.8 -6.66326 0.638415 2 4 8 13 15 17 20 20 20 17 15 13 8 4 2 -0.512022 -0.386178 -0.441085 -0.437961 -0.449557 -0.440877 -0.442718 -0.442463 -0.442718 -0.440877 -0.449556 -0.437961 -0.441085 -0.386178 -0.512022 
6.9 -6.66995 0.645782 2 4 8 13 16 18 20 20 20 18 16 13 8 4 2 -0.513444 -0.386446 -0.442594 -0.438552 -0.449811 -0.439922 -0.442649 -0.443113 -0.442649 -0.439923 -0.44981 -0.438553 -0.442594 -0.386446 -0.513444 
7 -6.67605 0.653027 2 4 8 14 17 19 20 20 20 19 17 14 8 4 2 -0.514785 -0.386684 -0.44415 -0.438962 -0.449952 -0.439013 -0.44262 -0.443714 -0.44262 -0.439014 -0.449951 -0.438963 -0.444149 -0.386684 -0.514785 
7.1 -6.68153 0.660121 2 4 8 14 17 19 20 21 20 19 17 14 8 4 2 -0.516041 -0.386892 -0.445748 -0.439174 -0.44999 -0.438167 -0.442632 -0.444249 -0.442632 -0.438168 -0.449988 -0.439175 -0.445747 -0.386892 -0.516041 
7.2 -6.68642 0.667041 2 4 8 14 17 20 21 22 21 20 17 14 8 4 2 -0.517219 -0.387066 -0.447381 -0.439175 -0.449936 -0.437397 -0.442683 -0.444701 -0.442683 -0.437398 -0.449934 -0.439177 -0.44738 -0.387066 -0.517219 
7.3 -6.69071 0.673762 2 4 8 15 19 20 21 22 21 20 19 15 8 4 2 -0.518337 -0.387201 -0.449042 -0.438957 -0.449803 -0.436716 -0.442771 -0.445058 -0.442771 -0.436717 -0.449801 -0.438958 -0.449042 -0.387201 -0.518337 
7.4 -6.69444 0.680269 2 4 8 15 19 21 22 23 22 20 19 15 8 4 2 -0.519416 -0.387285 -0.450724 -0.438511 -0.449605 -0.436131 -0.442894 -0.445307 -0.442894 -0.436131 -0.449603 -0.438512 -0.450724 -0.387284 -0.519417 
7.5 -6.69764 0.686548 2 4 8 15 19 21 22 24 23 21 19 15 8 4 2 -0.52049 -0.387303 -0.452421 -0.437836 -0.449357 -0.435646 -0.443048 -0.445439 -0.443048 -0.435647 -0.449356 -0.437837 -0.452421 -0.387302 -0.52049 
7.6 -6.70037 0.692588 2 4 8 15 20 21 24 24 24 21 20 15 8 4 2 -0.521593 -0.387235 -0.454127 -0.436933 -0.449074 -0.435264 -0.443232 -0.44545 -0.443232 -0.435265 -0.449073 -0.436934 -0.454127 -0.387235 -0.521593 
7.7 -6.70266 0.698387 2 4 8 16 20 21 24 26 24 21 20 16 8 4 2 -0.522764 -0.38706 -0.455835 -0.435807 -0.448771 -0.434982 -0.443441 -0.445336 -0.443441 -0.434982 -0.44877 -0.435807 -0.455836 -0.387059 -0.522765 
7.8 -6.70456 0.703945 2 4 8 16 20 22 25 26 25 22 20 16 8 4 2 -0.524045 -0.386751 -0.457544 -0.434467 -0.448461 -0.434795 -0.443671 -0.445096 -0.443671 -0.434795 -0.448461 -0.434466 -0.457546 -0.386749 -0.524045 
7.9 -6.70614 0.709266 2 4 8 16 20 23 25 26 25 23 20 16 8 4 2 -0.525475 -0.386277 -0.459252 -0.432925 -0.448159 -0.434694 -0.443919 -0.444734 -0.44392 -0.434693 -0.44816 -0.432923 -0.459254 -0.386275 -0.525475 
8 -6.70742 0.71436 2 4 8 16 21 23 26 28 26 23 21 16 8 4 2 -0.527094 -0.385608 -0.460957 -0.431196 -0.447877 -0.434669 -0.444181 -0.444254 -0.444182 -0.434667 -0.447879 -0.431193 -0.46096 -0.385606 -0.527094 
8.1 -6.70846 0.719242 2 4 8 16 21 23 28 30 28 23 21 16 8 4 2 -0.528938 -0.384713 -0.462661 -0.429299 -0.447626 -0.434705 -0.444454 -0.443665 -0.444456 -0.434703 -0.447629 -0.429295 -0.462666 -0.384711 -0.528938 
8.2 -6.70929 0.723929 2 4 8 16 22 25 28 30 28 25 22 16 8 4 2 -0.531039 -0.383559 -0.464367 -0.427255 -0.447416 -0.434788 -0.444734 -0.442976 -0.444736 -0.434785 -0.44742 -0.42725 -0.464372 -0.383556 -0.531039 
8.3 -6.70996 0.728447 2 4 8 16 22 25 30 30 30 25 22 16 8 4 2 -0.533425 -0.382117 -0.466078 -0.425086 -0.447257 -0.434899 -0.445018 -0.442198 -0.44502 -0.434895 -0.447262 -0.425079 -0.466084 -0.382114 -0.533425 
8.4 -6.71048 0.732823 2 4 8 16 23 26 30 32 30 26 23 16 8 4 2 -0.536118 -0.380359 -0.467798 -0.422815 -0.447155 -0.435018 -0.445302 -0.441346 -0.445304 -0.435014 -0.447161 -0.422807 -0.467805 -0.380356 -0.536119 
8.5 -6.71089 0.737088 2 4 8 16 23 26 32 32 32 27 23 16 8 4 2 -0.539135 -0.378262 -0.469532 -0.420468 -0.447118 -0.435128 -0.445584 -0.440433 -0.445586 -0.435123 -0.447126 -0.420459 -0.46954 -0.378259 -0.539136 
8.6 -6.71121 0.741277 2 4 8 16 23 27 32 33 32 27 23 16 8 4 2 -0.542487 -0.375807 -0.471285 -0.418067 -0.447152 -0.435206 -0.445861 -0.439475 -0.445863 -0.435201 -0.44716 -0.418057 -0.471293 -0.375804 -0.542487 
8.7 -6.71145 0.745428 2 4 8 16 24 28 32 34 32 28 24 16 8 4 2 -0.546176 -0.372984 -0.473061 -0.415637 -0.44726 -0.435232 -0.446131 -0.438485 -0.446133 -0.435227 -0.447269 -0.415627 -0.473069 -0.372981 -0.546176 
8.8 -6.71164 0.749579 2 4 8 16 25 30 34 35 34 30 25 16 8 4 2 -0.550201 -0.369786 -0.474864 -0.413201 -0.447448 -0.435186 -0.446393 -0.43748 -0.446394 -0.435181 -0.447457 -0.41319 -0.474871 -0.369783 -0.550201 
8.9 -6.71178 0.753768 2 4 8 16 25 30 35 36 35 30 25 16 8 4 2 -0.554551 -0.366215 -0.476697 -0.410778 -0.447718 -0.435049 -0.446644 -0.436473 -0.446645 -0.435044 -0.447726 -0.410767 -0.476704 -0.366213 -0.554551 
9 -6.71188 0.758034 2 4 8 16 25 30 36 38 36 30 25 16 8 4 2 -0.559212 -0.362282 -0.478562 -0.408386 -0.448073 -0.434802 -0.446885 -0.435478 -0.446885 -0.434798 -0.448081 -0.408376 -0.478569 -0.36228 -0.559212 
9.1 -6.71196 0.762411 2 4 8 16 26 32 37 38 37 32 26 16 8 4 2 -0.56416 -0.358005 -0.480462 -0.406041 -0.448515 -0.43443 -0.447114 -0.434505 -0.447114 -0.434427 -0.448523 -0.406032 -0.480467 -0.358004 -0.56416 
9.2 -6.71202 0.766932 2 4 8 16 26 32 38 39 38 32 26 16 8 4 2 -0.569369 -0.353411 -0.482395 -0.403755 -0.449048 -0.433919 -0.447332 -0.433564 -0.447332 -0.433917 -0.449054 -0.403748 -0.482399 -0.353411 -0.569368 
9.3 -6.71206 0.771627 2 4 8 16 26 33 39 40 39 33 26 16 8 4 2 -0.574804 -0.348534 -0.48436 -0.401536 -0.449671 -0.433256 -0.447539 -0.432663 -0.447538 -0.433255 -0.449676 -0.40153 -0.484364 -0.348534 -0.574802 
