time energy SvN bondDim localEnergy 
0 -6.21761 0.188135 2 4 8 10 10 10 10 10 10 10 10 10 8 4 2 -0.491956 -0.377379 -0.414348 -0.403258 -0.406914 -0.405782 -0.406162 -0.40601 -0.406162 -0.405782 -0.406914 -0.403258 -0.414348 -0.377379 -0.491956 
0.1 -6.21761 0.188135 2 4 8 10 10 10 10 10 10 10 10 10 8 4 2 -0.491956 -0.377379 -0.414348 -0.403258 -0.406914 -0.405782 -0.406162 -0.40601 -0.406162 -0.405782 -0.406914 -0.403258 -0.414348 -0.377379 -0.491956 
0.2 -6.21761 0.188135 2 4 8 10 10 10 10 10 10 10 10 10 8 4 2 -0.491956 -0.377379 -0.414348 -0.403258 -0.406914 -0.405782 -0.406162 -0.40601 -0.406162 -0.405782 -0.406914 -0.403258 -0.414348 -0.377379 -0.491956 
0.3 -6.21761 0.188135 2 4 8 10 10 10 10 10 10 10 10 10 8 4 2 -0.491956 -0.377379 -0.414348 -0.403258 -0.406914 -0.405782 -0.406162 -0.40601 -0.406162 -0.405782 -0.406914 -0.403258 -0.414348 -0.377379 -0.491956 
0.4 -6.21761 0.188135 2 4 8 10 10 10 10 10 10 10 10 10 8 4 2 -0.491956 -0.377379 -0.414348 -0.403258 -0.406914 -0.405782 -0.406162 -0.40601 -0.406162 -0.405782 -0.406914 -0.403258 -0.414348 -0.377379 -0.491956 
0.5 -6.21761 0.188135 2 4 8 10 10 10 10 10 10 10 10 10 8 4 2 -0.491956 -0.377379 -0.414348 -0.403258 -0.406914 -0.405782 -0.406162 -0.40601 -0.406162 -0.405782 -0.406914 -0.403258 -0.414348 -0.377379 -0.491956 
0.6 -6.21761 0.188135 2 4 8 10 10 10 10 10 10 10 10 10 8 4 2 -0.491956 -0.377379 -0.414348 -0.403258 -0.406914 -0.405782 -0.406162 -0.40601 -0.406162 -0.405782 -0.406914 -0.403258 -0.414348 -0.377379 -0.491956 
0.7 -6.21761 0.188135 2 4 8 10 10 10 10 10 10 10 10 10 8 4 2 -0.491956 -0.377379 -0.414348 -0.403258 -0.406914 -0.405782 -0.406162 -0.40601 -0.406162 -0.405782 -0.406914 -0.403258 -0.414348 -0.377379 -0.491956 
0.8 -6.21761 0.188136 2 4 8 10 10 10 10 10 10 10 10 10 8 4 2 -0.491956 -0.377379 -0.414348 -0.403258 -0.406914 -0.405782 -0.406162 -0.40601 -0.406162 -0.405782 -0.406914 -0.403258 -0.414348 -0.377379 -0.491956 
0.9 -6.21764 0.188191 2 4 8 10 10 10 10 10 10 10 10 10 8 4 2 -0.491956 -0.377379 -0.414348 -0.403258 -0.406914 -0.405777 -0.406172 -0.406038 -0.406172 -0.405777 -0.406914 -0.403258 -0.414348 -0.377379 -0.491956 
1 -6.2183 0.189777 2 4 8 10 10 10 10 10 10 10 10 10 8 4 2 -0.491956 -0.377379 -0.414348 -0.403257 -0.406914 -0.405637 -0.406369 -0.406584 -0.406369 -0.405637 -0.406914 -0.403257 -0.414348 -0.377379 -0.491956 
1.1 -6.21934 0.195647 2 4 8 10 10 10 10 10 10 10 10 10 8 4 2 -0.491956 -0.377379 -0.414348 -0.403257 -0.406915 -0.405114 -0.406863 -0.40768 -0.406863 -0.405114 -0.406915 -0.403257 -0.414348 -0.377379 -0.491956 
1.2 -6.22125 0.206885 2 4 8 10 10 10 10 10 10 10 10 10 8 4 2 -0.491956 -0.377379 -0.414348 -0.403255 -0.406919 -0.404098 -0.407783 -0.40978 -0.407783 -0.404098 -0.406919 -0.403255 -0.414348 -0.377379 -0.491956 
1.3 -6.22403 0.22284 2 4 8 10 10 10 10 10 10 10 10 10 8 4 2 -0.491956 -0.377379 -0.414348 -0.403248 -0.406931 -0.402628 -0.409064 -0.412924 -0.409064 -0.402628 -0.406931 -0.403248 -0.414348 -0.377379 -0.491956 
1.4 -6.22757 0.242621 2 4 8 10 10 10 10 10 10 10 10 10 8 4 2 -0.491956 -0.377379 -0.414348 -0.403232 -0.406956 -0.400766 -0.410595 -0.417101 -0.410595 -0.400766 -0.406956 -0.403232 -0.414348 -0.377379 -0.491956 
1.5 -6.23172 0.265275 2 4 8 10 10 10 10 10 10 10 10 10 8 4 2 -0.491956 -0.377378 -0.414348 -0.403203 -0.407002 -0.398596 -0.412234 -0.422286 -0.412234 -0.398596 -0.407002 -0.403203 -0.414348 -0.377379 -0.491956 
1.6 -6.23554 0.289873 2 4 8 10 10 10 10 10 10 10 10 10 8 4 2 -0.491956 -0.377378 -0.414349 -0.403156 -0.407006 -0.396378 -0.413406 -0.428278 -0.413406 -0.396378 -0.407006 -0.403156 -0.414349 -0.377378 -0.491956 
1.7 -6.23688 0.315571 2 4 8 10 10 10 10 10 10 10 10 10 8 4 2 -0.491956 -0.377378 -0.41435 -0.403085 -0.406735 -0.394524 -0.413197 -0.43443 -0.413197 -0.394524 -0.406735 -0.403085 -0.41435 -0.377378 -0.491956 
1.8 -6.23899 0.341649 2 4 8 10 10 10 10 10 10 10 10 10 8 4 2 -0.491956 -0.377377 -0.41435 -0.402987 -0.406021 -0.393416 -0.413294 -0.440192 -0.413294 -0.393416 -0.406021 -0.402987 -0.41435 -0.377377 -0.491956 
1.9 -6.24216 0.367538 2 4 8 10 10 10 10 10 10 10 10 10 8 4 2 -0.491956 -0.377375 -0.414349 -0.402862 -0.40489 -0.393069 -0.413855 -0.445442 -0.413855 -0.393069 -0.40489 -0.402862 -0.414349 -0.377375 -0.491956 
2 -6.24631 0.392819 2 4 8 10 10 10 10 10 10 10 10 10 8 4 2 -0.491956 -0.377373 -0.414343 -0.402716 -0.403392 -0.393429 -0.414891 -0.450108 -0.414891 -0.393429 -0.403392 -0.402716 -0.414343 -0.377373 -0.491956 
2.1 -6.25135 0.417215 2 4 8 10 10 10 10 10 10 10 10 10 8 4 2 -0.491956 -0.377369 -0.414329 -0.402556 -0.401587 -0.394405 -0.416401 -0.45414 -0.416401 -0.394405 -0.401587 -0.402556 -0.414329 -0.377369 -0.491956 
2.2 -6.25672 0.440557 2 4 8 10 10 10 10 10 10 10 10 10 8 4 2 -0.491956 -0.377364 -0.414301 -0.402363 -0.399601 -0.395672 -0.418349 -0.457512 -0.418349 -0.395672 -0.399601 -0.402363 -0.414301 -0.377364 -0.491956 
2.3 -6.25884 0.462757 2 4 8 10 10 10 10 10 10 10 10 10 8 4 2 -0.491956 -0.377357 -0.414256 -0.401925 -0.397702 -0.395606 -0.420513 -0.460209 -0.420513 -0.395606 -0.397702 -0.401925 -0.414256 -0.377357 -0.491956 
2.4 -6.26123 0.483782 2 4 8 10 10 10 10 10 10 10 10 10 8 4 2 -0.491955 -0.377347 -0.41419 -0.401039 -0.396391 -0.395909 -0.422678 -0.462209 -0.422678 -0.395909 -0.396391 -0.401039 -0.41419 -0.377347 -0.491955 
2.5 -6.2647 0.503627 2 4 8 10 10 10 10 10 10 10 10 10 8 4 2 -0.491954 -0.377333 -0.414103 -0.399719 -0.395743 -0.39694 -0.424805 -0.463504 -0.424805 -0.39694 -0.395743 -0.399719 -0.414103 -0.377333 -0.491954 
2.6 -6.2692 0.522294 2 4 8 10 10 10 10 10 10 10 10 10 8 4 2 -0.491953 -0.377311 -0.413998 -0.398023 -0.395689 -0.398694 -0.426879 -0.464103 -0.426879 -0.398694 -0.395689 -0.398023 -0.413998 -0.377311 -0.491953 
2.7 -6.27462 0.53978 2 4 8 10 10 10 10 10 10 10 10 10 8 4 2 -0.49195 -0.377279 -0.41388 -0.396025 -0.396122 -0.401152 -0.428887 -0.464033 -0.428887 -0.401152 -0.396122 -0.396025 -0.41388 -0.377279 -0.49195 
2.8 -6.28067 0.556068 2 4 8 10 10 10 10 10 10 10 10 10 8 4 2 -0.491946 -0.377233 -0.413747 -0.393832 -0.39682 -0.404275 -0.430813 -0.46334 -0.430813 -0.404275 -0.39682 -0.393832 -0.413747 -0.377233 -0.491946 
2.9 -6.28379 0.571138 2 4 8 10 10 10 10 10 10 10 10 10 8 4 2 -0.49194 -0.377168 -0.413416 -0.391715 -0.396106 -0.407865 -0.432639 -0.462087 -0.432639 -0.407865 -0.396106 -0.391715 -0.413416 -0.377168 -0.49194 
3 -6.28614 0.584974 2 4 8 10 10 10 10 10 10 10 10 10 8 4 2 -0.491932 -0.377083 -0.412659 -0.390104 -0.395111 -0.411668 -0.434341 -0.460345 -0.434341 -0.411668 -0.395111 -0.390104 -0.412659 -0.377083 -0.491932 
3.1 -6.28958 0.597581 2 4 8 10 10 10 10 10 10 10 10 10 8 4 2 -0.491919 -0.376977 -0.41144 -0.389213 -0.394681 -0.415572 -0.43589 -0.458197 -0.43589 -0.415572 -0.394681 -0.389213 -0.41144 -0.376977 -0.491919 
3.2 -6.29411 0.609001 2 4 8 10 10 10 10 10 10 10 10 10 8 4 2 -0.491897 -0.376854 -0.409806 -0.388998 -0.394846 -0.419526 -0.437263 -0.455727 -0.437263 -0.419526 -0.394846 -0.388998 -0.409806 -0.376854 -0.491897 
3.3 -6.29964 0.619319 2 4 8 10 10 10 10 10 10 10 10 10 8 4 2 -0.491863 -0.376724 -0.40782 -0.389376 -0.395608 -0.423477 -0.438442 -0.453019 -0.438442 -0.423477 -0.395608 -0.389377 -0.40782 -0.376724 -0.491863 
3.4 -6.306 0.628672 2 4 8 10 10 10 10 10 10 10 10 10 8 4 2 -0.491811 -0.376593 -0.405563 -0.390202 -0.396959 -0.427373 -0.439416 -0.450161 -0.439416 -0.427373 -0.396959 -0.390202 -0.405563 -0.376593 -0.491811 
3.5 -6.3106 0.637239 2 4 8 10 10 10 10 11 10 10 10 10 8 4 2 -0.491735 -0.376356 -0.403242 -0.39022 -0.39879 -0.431159 -0.440182 -0.447233 -0.440182 -0.431159 -0.39879 -0.39022 -0.403242 -0.376356 -0.491735 
3.6 -6.31289 0.645233 2 4 8 10 10 10 11 11 11 10 10 10 8 4 2 -0.49163 -0.375802 -0.401146 -0.389289 -0.400902 -0.434778 -0.440741 -0.444314 -0.440741 -0.434778 -0.400902 -0.389289 -0.401146 -0.375802 -0.49163 
3.7 -6.3162 0.652882 2 4 8 10 10 10 11 12 11 10 10 10 8 4 2 -0.491492 -0.374847 -0.399666 -0.388909 -0.403185 -0.438163 -0.441103 -0.441474 -0.441103 -0.438163 -0.403185 -0.388909 -0.399666 -0.374847 -0.491492 
3.8 -6.32066 0.660404 2 4 8 10 10 10 12 12 12 10 10 10 8 4 2 -0.491318 -0.373535 -0.398776 -0.389152 -0.405625 -0.441254 -0.441279 -0.438778 -0.441279 -0.441254 -0.405625 -0.389152 -0.398776 -0.373535 -0.491318 
3.9 -6.32618 0.667992 2 4 8 10 10 11 12 13 12 11 10 10 8 4 2 -0.491111 -0.37193 -0.398393 -0.39002 -0.408206 -0.443999 -0.441289 -0.436281 -0.441289 -0.443999 -0.408206 -0.39002 -0.398393 -0.37193 -0.491111 
4 -6.33262 0.675796 2 4 8 10 10 11 13 13 13 11 10 10 8 4 2 -0.490873 -0.370107 -0.398395 -0.391507 -0.410909 -0.446355 -0.44115 -0.434029 -0.44115 -0.446355 -0.410909 -0.391507 -0.398395 -0.370107 -0.490873 
4.1 -6.33856 0.683915 2 4 8 10 10 11 13 13 13 11 10 10 8 4 2 -0.490535 -0.36825 -0.398027 -0.393551 -0.413709 -0.448293 -0.440886 -0.43206 -0.440887 -0.448293 -0.413709 -0.393551 -0.398027 -0.36825 -0.490535 
4.2 -6.34082 0.6924 2 4 8 10 10 12 13 14 13 12 10 10 8 4 2 -0.489838 -0.36663 -0.395904 -0.395949 -0.416574 -0.449792 -0.44052 -0.430403 -0.44052 -0.449792 -0.416574 -0.395949 -0.395904 -0.36663 -0.489838 
4.3 -6.34381 0.701263 2 4 8 10 10 12 14 15 14 12 10 10 8 4 2 -0.488599 -0.365747 -0.394104 -0.398541 -0.419457 -0.450846 -0.440073 -0.429076 -0.440073 -0.450846 -0.419457 -0.398541 -0.394104 -0.365747 -0.488599 
4.4 -6.34791 0.710489 2 4 8 10 10 13 14 15 14 13 10 10 8 4 2 -0.486846 -0.365612 -0.392812 -0.401303 -0.422309 -0.451458 -0.439568 -0.42809 -0.439568 -0.451458 -0.422309 -0.401303 -0.392812 -0.365612 -0.486846 
4.5 -6.35305 0.720054 2 4 8 10 11 13 15 17 15 13 11 10 8 4 2 -0.484639 -0.36615 -0.392047 -0.404215 -0.425083 -0.451642 -0.439025 -0.427449 -0.439025 -0.451642 -0.425083 -0.404215 -0.392047 -0.36615 -0.484639 
4.6 -6.35914 0.729938 2 4 8 11 12 13 16 17 16 13 12 11 8 4 2 -0.482053 -0.367249 -0.39182 -0.407255 -0.427735 -0.451421 -0.438464 -0.427146 -0.438464 -0.451421 -0.427735 -0.407255 -0.39182 -0.367249 -0.482053 
4.7 -6.36557 0.740136 2 4 8 11 12 14 17 17 17 14 12 11 8 4 2 -0.479187 -0.368541 -0.392123 -0.410393 -0.430227 -0.450825 -0.437901 -0.427171 -0.437901 -0.450825 -0.430227 -0.410393 -0.392123 -0.368541 -0.479187 
4.8 -6.36838 0.750656 2 4 8 11 13 15 18 18 18 15 13 11 8 4 2 -0.475949 -0.36831 -0.392814 -0.413595 -0.432526 -0.449894 -0.437349 -0.427503 -0.437349 -0.449894 -0.432526 -0.413595 -0.392814 -0.36831 -0.475949 
4.9 -6.37167 0.761519 2 4 8 11 13 16 18 18 18 16 13 11 8 4 2 -0.472866 -0.368248 -0.393759 -0.416808 -0.434607 -0.448669 -0.43682 -0.42812 -0.43682 -0.44867 -0.434607 -0.416808 -0.393759 -0.368248 -0.472866 
5 -6.37637 0.772748 2 4 8 11 13 16 18 19 18 16 13 11 8 4 2 -0.47008 -0.368713 -0.394948 -0.419974 -0.436449 -0.447201 -0.436325 -0.428992 -0.436325 -0.447201 -0.436449 -0.419974 -0.394948 -0.368713 -0.47008 
5.1 -6.38242 0.784353 2 4 8 12 15 16 19 20 19 16 15 12 8 4 2 -0.467588 -0.369705 -0.396392 -0.423036 -0.43804 -0.445539 -0.43587 -0.430083 -0.43587 -0.44554 -0.43804 -0.423036 -0.396392 -0.369705 -0.467588 
5.2 -6.38973 0.79632 2 4 8 13 15 18 20 20 20 18 15 13 8 4 2 -0.465369 -0.371207 -0.398101 -0.425937 -0.439373 -0.443737 -0.435461 -0.431357 -0.43546 -0.443737 -0.439373 -0.425937 -0.398101 -0.371207 -0.465369 
5.3 -6.39779 0.808606 2 4 8 13 16 18 20 21 20 18 16 13 8 4 2 -0.463227 -0.373187 -0.400078 -0.428626 -0.440446 -0.441846 -0.435102 -0.432773 -0.435101 -0.441846 -0.440446 -0.428626 -0.400078 -0.373187 -0.463227 
5.4 -6.40048 0.821137 2 4 8 13 16 18 21 22 21 18 16 13 8 4 2 -0.458298 -0.375446 -0.402319 -0.431056 -0.441264 -0.439917 -0.434795 -0.434287 -0.434795 -0.439917 -0.441264 -0.431056 -0.402319 -0.375447 -0.458298 
5.5 -6.40056 0.833816 2 4 8 14 16 19 21 23 21 19 16 14 8 4 2 -0.452232 -0.377753 -0.4048 -0.433187 -0.441835 -0.438 -0.434544 -0.435857 -0.434543 -0.438 -0.441835 -0.433187 -0.4048 -0.377753 -0.452232 
5.6 -6.40056 0.846529 2 4 8 14 18 19 22 23 22 19 18 14 8 4 2 -0.446393 -0.380038 -0.407481 -0.434987 -0.442174 -0.436139 -0.434348 -0.437439 -0.434347 -0.436139 -0.442174 -0.434987 -0.407481 -0.380039 -0.446393 
5.7 -6.40056 0.859159 2 4 8 14 19 20 23 25 23 20 19 14 8 4 2 -0.440861 -0.382293 -0.410322 -0.436429 -0.442296 -0.434377 -0.434207 -0.438988 -0.434207 -0.434377 -0.442296 -0.436429 -0.410323 -0.382293 -0.440861 
5.8 -6.40056 0.871604 2 4 8 14 19 21 25 26 25 21 19 14 8 4 2 -0.43568 -0.3845 -0.413283 -0.437493 -0.442221 -0.432749 -0.434122 -0.440465 -0.434122 -0.432749 -0.442221 -0.437493 -0.413283 -0.3845 -0.43568 
5.9 -6.40056 0.883778 2 4 8 15 19 22 25 27 25 22 19 15 8 4 2 -0.430896 -0.386633 -0.416321 -0.438168 -0.441969 -0.431286 -0.434092 -0.44183 -0.434092 -0.431286 -0.441969 -0.438168 -0.416321 -0.386633 -0.430896 
6 -6.40056 0.895622 2 4 8 15 20 23 27 28 27 23 20 15 8 4 2 -0.426557 -0.388658 -0.4194 -0.438451 -0.441562 -0.430014 -0.434113 -0.443049 -0.434113 -0.430014 -0.441562 -0.438451 -0.4194 -0.388658 -0.426557 
6.1 -6.40056 0.907104 2 4 8 16 20 23 27 29 27 24 20 16 8 4 2 -0.422714 -0.390531 -0.422485 -0.438346 -0.441022 -0.428951 -0.434186 -0.444092 -0.434186 -0.428951 -0.441022 -0.438346 -0.422485 -0.390531 -0.422714 
6.2 -6.40056 0.918212 2 4 8 16 20 24 29 30 29 24 20 16 8 4 2 -0.419419 -0.392202 -0.425542 -0.437865 -0.44037 -0.42811 -0.434306 -0.444932 -0.434306 -0.42811 -0.440371 -0.437865 -0.425542 -0.392202 -0.419419 
6.3 -6.40056 0.928948 2 4 8 16 21 25 29 31 29 25 21 16 8 4 2 -0.416721 -0.393615 -0.428546 -0.437026 -0.43963 -0.427497 -0.43447 -0.445552 -0.43447 -0.427497 -0.43963 -0.437026 -0.428546 -0.393615 -0.416721 
6.4 -6.40056 0.93932 2 4 8 16 21 27 30 34 30 27 21 16 8 4 2 -0.414671 -0.394708 -0.431471 -0.435855 -0.43882 -0.427112 -0.434675 -0.445936 -0.434675 -0.427112 -0.43882 -0.435855 -0.431471 -0.394708 -0.414671 
6.5 -6.40056 0.949331 2 4 8 16 22 28 32 34 32 28 22 16 8 4 2 -0.413316 -0.395419 -0.4343 -0.434382 -0.43796 -0.426949 -0.434915 -0.446079 -0.434915 -0.426949 -0.43796 -0.434382 -0.4343 -0.395419 -0.413316 
6.6 -6.40056 0.958985 2 4 8 16 23 29 33 36 33 29 23 16 8 4 2 -0.412699 -0.395684 -0.437015 -0.432643 -0.437068 -0.426996 -0.435185 -0.44598 -0.435185 -0.426996 -0.437069 -0.432643 -0.437015 -0.395684 -0.412699 
6.7 -6.40056 0.968279 2 4 8 16 23 29 34 37 34 29 23 16 8 4 2 -0.412858 -0.395441 -0.439605 -0.430677 -0.436162 -0.427236 -0.435479 -0.445643 -0.43548 -0.427236 -0.436162 -0.430677 -0.439605 -0.395441 -0.412858 
6.8 -6.40056 0.977211 2 4 8 16 25 31 35 39 35 31 25 16 8 4 2 -0.413826 -0.394634 -0.44206 -0.428526 -0.435256 -0.427647 -0.435791 -0.445082 -0.435792 -0.427647 -0.435256 -0.428526 -0.44206 -0.394634 -0.413826 
6.9 -6.40056 0.985782 2 4 8 16 25 31 37 40 37 32 25 16 8 4 2 -0.415626 -0.393211 -0.444372 -0.426234 -0.434365 -0.428203 -0.436114 -0.444313 -0.436114 -0.428202 -0.434366 -0.426233 -0.444372 -0.393211 -0.415626 
7 -6.40056 0.994008 2 4 8 16 26 32 40 42 40 33 26 16 8 4 2 -0.418274 -0.391131 -0.446535 -0.423845 -0.433504 -0.428873 -0.436439 -0.443358 -0.43644 -0.428873 -0.433504 -0.423844 -0.446535 -0.391131 -0.418275 
7.1 -6.40056 1.00191 2 4 8 16 26 35 41 43 41 35 26 16 8 4 2 -0.421778 -0.388363 -0.448546 -0.421402 -0.432684 -0.429625 -0.43676 -0.442245 -0.43676 -0.429625 -0.432684 -0.421402 -0.448546 -0.388362 -0.421778 
