time energy SvN bondDim localEnergy 
0 -5.06639 0.0530548 2 4 5 5 5 5 5 5 5 5 5 5 5 4 2 -0.352039 -0.334061 -0.335845 -0.335729 -0.335742 -0.335747 -0.335954 -0.336157 -0.335954 -0.335747 -0.335742 -0.335729 -0.335845 -0.334061 -0.352039 
0.1 -5.06647 0.0530922 2 4 5 5 5 5 5 5 5 5 5 5 5 4 2 -0.352039 -0.334061 -0.335845 -0.335729 -0.335742 -0.335748 -0.335972 -0.336192 -0.335972 -0.335748 -0.335742 -0.335729 -0.335845 -0.334061 -0.352039 
0.2 -5.06679 0.0532555 2 4 5 5 5 5 5 5 5 5 5 5 5 4 2 -0.352039 -0.334061 -0.335845 -0.33573 -0.335743 -0.335753 -0.336053 -0.336346 -0.336053 -0.335753 -0.335743 -0.33573 -0.335845 -0.334061 -0.352039 
0.3 -5.0676 0.0536614 2 4 5 5 5 5 5 5 5 5 5 5 5 4 2 -0.35204 -0.334062 -0.335846 -0.33573 -0.335745 -0.335763 -0.336252 -0.336725 -0.336252 -0.335763 -0.335745 -0.33573 -0.335846 -0.334062 -0.352039 
0.4 -5.06916 0.0544616 2 4 5 5 5 5 5 5 5 5 5 5 5 4 2 -0.35204 -0.334062 -0.335846 -0.335731 -0.335748 -0.335783 -0.336639 -0.337461 -0.336639 -0.335783 -0.335748 -0.335731 -0.335846 -0.334062 -0.35204 
0.5 -5.07184 0.0558603 2 4 5 5 5 5 5 5 5 5 5 5 5 4 2 -0.352041 -0.334062 -0.335846 -0.335732 -0.335755 -0.335818 -0.337305 -0.338722 -0.337305 -0.335818 -0.335755 -0.335732 -0.335846 -0.334062 -0.35204 
0.6 -5.0761 0.0581464 2 4 5 5 5 5 5 5 5 5 5 5 5 4 2 -0.352041 -0.334062 -0.335847 -0.335733 -0.335765 -0.335877 -0.338366 -0.340716 -0.338366 -0.335877 -0.335765 -0.335733 -0.335847 -0.334062 -0.35204 
0.7 -5.08251 0.0617339 2 4 5 5 5 5 5 5 5 5 5 5 5 4 2 -0.352041 -0.334062 -0.335847 -0.335735 -0.335782 -0.335977 -0.339965 -0.343692 -0.339966 -0.335977 -0.335782 -0.335735 -0.335847 -0.334062 -0.35204 
0.8 -5.09173 0.0671965 2 4 5 5 5 5 5 5 5 5 5 5 5 4 2 -0.352041 -0.334062 -0.335847 -0.335738 -0.33581 -0.336149 -0.342268 -0.347897 -0.342268 -0.336149 -0.33581 -0.335738 -0.335847 -0.334062 -0.35204 
0.9 -5.10432 0.0752598 2 4 5 5 5 5 5 5 5 5 5 5 5 4 2 -0.352041 -0.334062 -0.335848 -0.335743 -0.335857 -0.33645 -0.345415 -0.353486 -0.345415 -0.33645 -0.335857 -0.335743 -0.335848 -0.334062 -0.35204 
1 -5.12057 0.0867155 2 4 5 5 5 5 5 5 5 5 5 5 5 4 2 -0.35204 -0.334062 -0.335849 -0.335752 -0.335935 -0.336976 -0.34947 -0.360404 -0.349471 -0.336976 -0.335935 -0.335752 -0.335849 -0.334062 -0.35204 
1.1 -5.14038 0.102251 2 4 5 5 5 5 5 5 5 5 5 5 5 4 2 -0.35204 -0.334062 -0.335851 -0.335767 -0.336064 -0.337868 -0.354363 -0.36835 -0.354363 -0.337868 -0.336064 -0.335767 -0.335851 -0.334062 -0.35204 
1.2 -5.16329 0.12225 2 4 5 5 5 5 5 5 5 5 5 5 5 4 2 -0.35204 -0.334062 -0.335854 -0.335793 -0.336284 -0.339306 -0.359873 -0.376866 -0.359873 -0.339307 -0.336284 -0.335793 -0.335854 -0.334062 -0.352039 
1.3 -5.18867 0.146659 2 4 5 5 5 5 5 5 5 5 5 5 5 4 2 -0.35204 -0.334063 -0.33586 -0.335837 -0.336657 -0.341462 -0.36566 -0.385508 -0.36566 -0.341463 -0.336657 -0.335837 -0.33586 -0.334063 -0.35204 
1.4 -5.21584 0.17499 2 4 5 5 5 5 5 5 5 5 5 5 5 4 2 -0.35204 -0.334065 -0.335871 -0.335912 -0.337287 -0.344437 -0.371334 -0.39395 -0.371334 -0.344437 -0.337287 -0.335912 -0.335871 -0.334065 -0.35204 
1.5 -5.24422 0.206423 2 4 5 5 5 5 5 5 5 5 5 5 5 4 2 -0.352041 -0.334067 -0.335888 -0.336042 -0.338318 -0.3482 -0.376554 -0.401998 -0.376554 -0.3482 -0.338318 -0.336042 -0.335888 -0.334067 -0.35204 
1.6 -5.27338 0.239975 2 4 5 5 5 5 5 5 5 5 5 5 5 4 2 -0.352042 -0.334072 -0.335917 -0.336267 -0.339925 -0.352579 -0.381116 -0.409544 -0.381116 -0.352579 -0.339925 -0.336267 -0.335917 -0.334072 -0.352041 
1.7 -5.30306 0.274645 2 4 5 5 5 5 5 5 5 5 5 5 5 4 2 -0.352043 -0.334078 -0.335966 -0.336655 -0.342262 -0.357277 -0.384985 -0.416528 -0.384985 -0.357277 -0.342262 -0.336655 -0.335966 -0.334078 -0.352043 
1.8 -5.3331 0.30954 2 4 5 5 5 5 5 5 5 5 5 5 5 4 2 -0.352046 -0.334089 -0.336049 -0.337315 -0.345397 -0.361947 -0.388253 -0.422905 -0.388253 -0.361947 -0.345397 -0.337315 -0.336049 -0.334089 -0.352045 
1.9 -5.36336 0.343949 2 4 5 5 5 5 5 5 5 5 5 5 5 4 2 -0.35205 -0.334107 -0.336192 -0.338397 -0.349261 -0.366281 -0.391071 -0.428643 -0.391071 -0.366281 -0.349261 -0.338397 -0.336192 -0.334107 -0.352049 
2 -5.39379 0.377375 2 4 5 5 5 5 6 6 6 5 5 5 5 4 2 -0.352056 -0.334137 -0.336438 -0.340076 -0.353638 -0.370099 -0.393594 -0.433711 -0.393594 -0.3701 -0.353638 -0.340076 -0.336438 -0.334137 -0.352055 
2.1 -5.42435 0.409536 2 4 5 5 5 5 6 6 6 5 5 5 5 4 2 -0.352067 -0.334188 -0.336861 -0.342495 -0.358194 -0.373377 -0.395951 -0.438083 -0.395951 -0.373377 -0.358194 -0.342495 -0.336861 -0.334188 -0.352066 
2.2 -5.45501 0.440333 2 4 5 5 5 6 7 7 7 6 5 5 5 4 2 -0.352083 -0.334275 -0.337577 -0.345703 -0.362556 -0.376202 -0.398239 -0.44174 -0.398239 -0.376203 -0.362556 -0.345704 -0.337577 -0.334275 -0.352083 
2.3 -5.48574 0.469803 2 4 5 5 5 6 7 8 7 6 5 5 5 4 2 -0.352111 -0.334426 -0.338743 -0.349607 -0.366409 -0.378716 -0.40052 -0.444671 -0.40052 -0.378717 -0.36641 -0.349608 -0.338743 -0.334427 -0.352111 
2.4 -5.51651 0.498062 2 4 5 5 5 7 8 8 8 7 5 5 5 4 2 -0.352159 -0.334688 -0.340531 -0.353968 -0.369582 -0.381061 -0.402828 -0.446877 -0.402828 -0.381061 -0.369582 -0.353968 -0.340531 -0.334688 -0.352158 
2.5 -5.54734 0.525254 2 4 5 5 5 7 8 8 8 7 5 5 5 4 2 -0.352238 -0.335139 -0.343074 -0.35844 -0.372062 -0.383356 -0.405173 -0.448376 -0.405173 -0.383356 -0.372062 -0.35844 -0.343074 -0.335139 -0.352238 
2.6 -5.57821 0.551507 2 4 5 5 6 8 8 8 8 8 6 5 5 4 2 -0.352373 -0.335899 -0.346401 -0.362649 -0.373953 -0.385688 -0.407545 -0.449199 -0.407545 -0.385688 -0.373953 -0.362649 -0.346401 -0.335899 -0.352373 
2.7 -5.60911 0.57691 2 4 5 5 6 8 8 8 8 8 6 5 5 4 2 -0.352601 -0.337126 -0.350392 -0.366294 -0.375407 -0.388116 -0.409921 -0.449392 -0.409921 -0.388116 -0.375408 -0.366294 -0.350392 -0.337126 -0.352601 
2.8 -5.64003 0.601506 2 4 5 5 7 8 8 8 8 8 7 5 5 4 2 -0.352988 -0.338987 -0.354786 -0.369224 -0.376583 -0.390671 -0.412268 -0.449012 -0.412268 -0.390671 -0.376583 -0.369224 -0.354786 -0.338987 -0.352988 
2.9 -5.67099 0.625303 2 4 5 5 7 8 8 9 8 8 7 5 5 4 2 -0.353638 -0.341599 -0.359221 -0.371443 -0.377618 -0.39336 -0.414551 -0.448131 -0.414551 -0.39336 -0.377618 -0.371444 -0.359222 -0.341599 -0.353638 
3 -5.70198 0.648294 2 4 5 6 8 8 9 9 9 8 8 6 5 4 2 -0.354705 -0.34496 -0.363325 -0.37306 -0.378623 -0.396174 -0.416731 -0.446826 -0.416731 -0.396174 -0.378623 -0.37306 -0.363325 -0.344961 -0.354704 
3.1 -5.73294 0.670481 2 4 5 6 8 8 10 10 10 8 8 6 5 4 2 -0.356382 -0.348923 -0.36681 -0.374224 -0.379684 -0.399088 -0.418771 -0.445178 -0.418771 -0.399088 -0.379684 -0.374224 -0.36681 -0.348924 -0.356382 
3.2 -5.76379 0.691894 2 4 5 7 8 9 10 10 10 9 8 7 5 4 2 -0.358863 -0.353197 -0.369542 -0.375086 -0.380861 -0.40207 -0.420639 -0.443271 -0.420639 -0.402071 -0.380861 -0.375086 -0.369543 -0.353197 -0.358863 
3.3 -5.79432 0.712603 2 4 6 7 8 9 10 11 10 10 8 7 6 4 2 -0.362265 -0.357402 -0.371541 -0.375775 -0.382194 -0.405081 -0.422308 -0.441188 -0.422308 -0.405081 -0.382194 -0.375775 -0.371541 -0.357402 -0.362264 
3.4 -5.82414 0.732726 2 4 6 8 8 10 11 12 11 10 8 8 6 4 2 -0.366555 -0.361159 -0.372918 -0.376395 -0.383705 -0.408075 -0.423758 -0.439008 -0.423758 -0.408075 -0.383705 -0.376396 -0.372918 -0.361159 -0.366554 
3.5 -5.85267 0.75241 2 4 7 8 9 10 11 12 12 10 9 8 7 4 2 -0.371511 -0.364188 -0.373817 -0.377027 -0.385402 -0.41101 -0.424978 -0.436802 -0.424978 -0.41101 -0.385402 -0.377027 -0.373817 -0.364188 -0.37151 
3.6 -5.8792 0.771823 2 4 7 8 9 11 13 13 13 11 9 8 7 4 2 -0.376727 -0.366367 -0.374376 -0.377729 -0.387282 -0.413842 -0.425961 -0.434636 -0.425961 -0.413842 -0.387282 -0.377729 -0.374377 -0.366367 -0.376726 
3.7 -5.90299 0.791127 2 4 8 8 10 11 13 13 13 11 10 8 8 4 2 -0.381672 -0.367717 -0.374713 -0.378539 -0.389333 -0.41653 -0.426713 -0.432562 -0.426713 -0.416529 -0.389333 -0.378539 -0.374713 -0.367717 -0.381672 
3.8 -5.92338 0.81046 2 4 8 9 10 12 14 14 14 12 10 9 8 4 2 -0.385816 -0.368347 -0.374915 -0.379484 -0.391535 -0.419036 -0.427243 -0.430626 -0.427243 -0.419035 -0.391535 -0.379483 -0.374915 -0.368347 -0.385815 
3.9 -5.93996 0.829926 2 4 8 9 10 13 15 15 15 13 10 9 8 4 2 -0.388768 -0.3684 -0.375046 -0.380576 -0.393863 -0.421328 -0.427568 -0.428861 -0.427569 -0.421327 -0.393863 -0.380575 -0.375046 -0.3684 -0.388768 
4 -5.95277 0.849585 2 4 8 10 11 13 15 17 15 13 11 10 8 4 2 -0.390376 -0.368016 -0.375148 -0.381819 -0.396288 -0.423381 -0.42771 -0.427291 -0.42771 -0.42338 -0.396288 -0.381819 -0.375149 -0.368016 -0.390376 
4.1 -5.9622 0.869464 2 4 8 10 11 14 17 17 17 14 11 10 8 4 2 -0.390707 -0.367323 -0.375247 -0.383212 -0.398776 -0.425174 -0.427693 -0.42593 -0.427693 -0.425173 -0.398777 -0.383212 -0.375247 -0.367323 -0.390707 
4.2 -5.96885 0.889561 2 4 8 10 13 16 18 18 17 16 13 10 8 4 2 -0.389968 -0.366434 -0.375354 -0.384745 -0.401294 -0.426695 -0.427545 -0.424783 -0.427545 -0.426694 -0.401295 -0.384745 -0.375354 -0.366434 -0.389968 
4.3 -5.9734 0.909863 2 4 8 11 13 16 18 18 18 16 13 11 8 4 2 -0.388413 -0.365444 -0.375475 -0.386404 -0.403806 -0.427937 -0.427294 -0.423848 -0.427294 -0.427936 -0.403807 -0.386404 -0.375475 -0.365444 -0.388413 
4.4 -5.97641 0.930357 2 4 8 11 14 18 19 19 19 17 14 11 8 4 2 -0.386282 -0.364432 -0.375613 -0.388172 -0.406276 -0.428901 -0.426968 -0.423117 -0.426968 -0.428901 -0.406277 -0.388172 -0.375613 -0.364432 -0.386282 
4.5 -5.97835 0.951039 2 4 8 13 15 18 20 20 20 18 15 13 8 4 2 -0.383773 -0.363466 -0.375766 -0.390026 -0.408669 -0.429595 -0.426593 -0.422576 -0.426594 -0.429594 -0.408669 -0.390026 -0.375766 -0.363466 -0.383773 
4.6 -5.97959 0.971916 2 4 8 13 16 19 21 21 21 19 16 13 8 4 2 -0.381037 -0.362597 -0.375938 -0.391942 -0.410952 -0.430031 -0.426195 -0.422209 -0.426194 -0.430031 -0.410952 -0.391942 -0.375938 -0.362597 -0.381037 
4.7 -5.98036 0.993002 2 4 8 14 18 19 21 22 21 19 18 14 8 4 2 -0.378182 -0.361864 -0.376132 -0.393891 -0.413093 -0.430227 -0.425792 -0.421996 -0.425792 -0.430228 -0.413093 -0.393891 -0.376132 -0.361864 -0.378182 
4.8 -5.98083 1.01431 2 4 8 14 18 20 22 23 22 20 18 14 8 4 2 -0.375287 -0.361294 -0.376356 -0.395844 -0.415065 -0.430207 -0.425403 -0.421919 -0.425402 -0.430208 -0.415065 -0.395844 -0.376357 -0.361294 -0.375287 
4.9 -5.98112 1.03585 2 4 8 15 19 21 23 24 23 21 19 15 8 4 2 -0.372408 -0.360902 -0.376622 -0.397768 -0.416844 -0.429995 -0.42504 -0.421956 -0.425039 -0.429996 -0.416844 -0.397768 -0.376622 -0.360902 -0.372409 
5 -5.98129 1.0576 2 4 8 16 20 22 25 26 25 22 20 16 8 4 2 -0.369589 -0.360691 -0.376943 -0.399631 -0.418411 -0.42962 -0.424713 -0.422088 -0.424712 -0.429622 -0.41841 -0.399631 -0.376943 -0.360691 -0.369589 
5.1 -5.98139 1.07953 2 4 8 16 20 23 27 27 27 23 20 16 8 4 2 -0.366864 -0.360655 -0.377336 -0.401399 -0.419749 -0.429111 -0.424428 -0.422298 -0.424427 -0.429113 -0.419748 -0.4014 -0.377336 -0.360655 -0.366864 
5.2 -5.98144 1.10159 2 4 8 16 21 25 27 29 27 26 21 16 8 4 2 -0.364265 -0.360779 -0.377819 -0.403042 -0.420849 -0.428497 -0.424187 -0.422568 -0.424186 -0.428499 -0.420847 -0.403043 -0.377819 -0.360778 -0.364265 
5.3 -5.98148 1.12374 2 4 8 16 22 27 29 29 29 27 22 16 8 4 2 -0.361822 -0.361038 -0.37841 -0.40453 -0.421704 -0.427804 -0.423989 -0.422883 -0.423988 -0.427806 -0.421702 -0.404531 -0.37841 -0.361037 -0.361822 
5.4 -5.9815 1.1459 2 4 8 16 23 28 29 32 29 28 23 16 8 4 2 -0.359565 -0.361402 -0.379124 -0.405837 -0.422314 -0.42706 -0.423832 -0.423229 -0.42383 -0.427062 -0.422312 -0.405838 -0.379124 -0.361402 -0.359565 
5.5 -5.98151 1.16804 2 4 8 16 24 28 32 33 32 28 24 16 8 4 2 -0.357524 -0.361838 -0.379974 -0.406941 -0.422682 -0.426287 -0.42371 -0.423595 -0.423708 -0.426289 -0.42268 -0.406942 -0.379974 -0.361838 -0.357524 
5.6 -5.98151 1.19012 2 4 8 16 25 30 33 35 33 30 25 16 8 4 2 -0.35573 -0.362308 -0.380971 -0.407827 -0.422815 -0.425504 -0.423617 -0.423969 -0.423615 -0.425507 -0.422813 -0.407828 -0.380971 -0.362308 -0.355731 
5.7 -5.98152 1.21213 2 4 8 16 26 32 35 36 35 32 26 16 8 4 2 -0.354215 -0.362772 -0.382117 -0.408483 -0.422724 -0.424728 -0.423547 -0.424341 -0.423545 -0.424731 -0.422722 -0.408485 -0.382117 -0.362772 -0.354215 
5.8 -5.98152 1.23408 2 4 8 16 26 34 37 39 37 34 26 16 8 4 2 -0.35301 -0.363191 -0.383412 -0.408908 -0.422424 -0.423971 -0.423493 -0.424702 -0.423491 -0.423973 -0.422421 -0.408909 -0.383411 -0.363191 -0.35301 
5.9 -5.98152 1.25598 2 4 8 16 27 35 39 40 39 35 27 16 8 4 2 -0.352144 -0.363526 -0.384847 -0.409103 -0.421929 -0.423239 -0.423449 -0.425044 -0.423447 -0.423241 -0.421926 -0.409105 -0.384846 -0.363526 -0.352144 
