time energy SvN bondDim localEnergy 
0 -6.21839 0.18888 2 4 8 10 10 10 10 10 10 10 10 10 8 4 2 -0.491957 -0.377378 -0.41435 -0.403261 -0.406932 -0.405815 -0.406337 -0.406325 -0.406337 -0.405815 -0.406932 -0.403261 -0.41435 -0.377378 -0.491957 
0.1 -6.2184 0.188892 2 4 8 10 10 10 10 10 10 10 10 10 8 4 2 -0.491957 -0.377378 -0.41435 -0.403261 -0.406932 -0.405815 -0.40634 -0.40633 -0.40634 -0.405815 -0.406932 -0.403261 -0.41435 -0.377378 -0.491957 
0.2 -6.21846 0.188951 2 4 8 10 10 10 10 10 10 10 10 10 8 4 2 -0.491957 -0.377378 -0.41435 -0.403261 -0.406933 -0.405817 -0.406355 -0.406356 -0.406355 -0.405817 -0.406933 -0.403261 -0.41435 -0.377378 -0.491957 
0.3 -6.21862 0.189105 2 4 8 10 10 10 10 10 10 10 10 10 8 4 2 -0.491957 -0.377379 -0.414351 -0.403262 -0.406935 -0.405823 -0.406393 -0.406423 -0.406393 -0.405823 -0.406935 -0.403262 -0.414351 -0.377379 -0.491957 
0.4 -6.21896 0.189436 2 4 8 10 10 10 10 10 10 10 10 10 8 4 2 -0.491957 -0.377379 -0.414351 -0.403263 -0.40694 -0.405835 -0.406472 -0.406564 -0.406472 -0.405835 -0.40694 -0.403263 -0.414351 -0.377379 -0.491957 
0.5 -6.21959 0.190061 2 4 8 10 10 10 10 10 10 10 10 10 8 4 2 -0.491957 -0.377379 -0.414352 -0.403267 -0.406949 -0.405859 -0.406621 -0.406825 -0.406621 -0.405859 -0.406949 -0.403267 -0.414352 -0.377379 -0.491957 
0.6 -6.22068 0.191161 2 4 8 10 10 10 10 10 10 10 10 10 8 4 2 -0.491958 -0.37738 -0.414355 -0.403272 -0.406965 -0.405902 -0.406876 -0.407267 -0.406876 -0.405902 -0.406965 -0.403272 -0.414355 -0.37738 -0.491958 
0.7 -6.22243 0.19299 2 4 8 10 10 10 10 10 10 10 10 10 8 4 2 -0.491958 -0.377381 -0.414358 -0.403282 -0.406993 -0.405977 -0.407284 -0.407962 -0.407284 -0.405977 -0.406993 -0.403282 -0.414358 -0.377381 -0.491958 
0.8 -6.22508 0.195895 2 4 8 10 10 10 10 10 10 10 10 10 8 4 2 -0.491959 -0.377383 -0.414364 -0.403298 -0.407042 -0.406104 -0.407897 -0.40898 -0.407897 -0.406104 -0.407042 -0.403298 -0.414364 -0.377383 -0.491959 
0.9 -6.22884 0.200298 2 4 8 10 10 10 10 10 10 10 10 10 8 4 2 -0.491961 -0.377387 -0.414375 -0.403326 -0.407123 -0.406312 -0.408758 -0.410359 -0.408758 -0.406312 -0.407123 -0.403326 -0.414375 -0.377387 -0.491961 
1 -6.23386 0.206651 2 4 8 10 10 10 10 10 10 10 10 10 8 4 2 -0.491964 -0.377392 -0.414392 -0.403372 -0.407258 -0.406637 -0.409875 -0.412078 -0.409875 -0.406637 -0.407258 -0.403372 -0.414392 -0.377392 -0.491964 
1.1 -6.24014 0.215351 2 4 8 10 10 10 10 10 10 10 10 10 8 4 2 -0.491969 -0.377402 -0.41442 -0.403449 -0.407475 -0.407116 -0.411213 -0.414048 -0.411213 -0.407116 -0.407475 -0.403449 -0.41442 -0.377402 -0.491969 
1.2 -6.24755 0.226645 2 4 8 10 10 10 10 10 10 10 10 10 8 4 2 -0.491977 -0.377417 -0.414468 -0.403574 -0.40781 -0.407768 -0.412688 -0.416143 -0.412688 -0.407768 -0.40781 -0.403574 -0.414468 -0.377418 -0.491977 
1.3 -6.25589 0.240576 2 4 8 10 10 10 10 10 10 10 10 10 8 4 2 -0.491991 -0.377443 -0.414547 -0.403777 -0.408299 -0.408575 -0.414196 -0.418238 -0.414196 -0.408575 -0.408299 -0.403777 -0.414547 -0.377443 -0.491991 
1.4 -6.26494 0.256979 2 4 8 10 10 10 10 10 10 10 10 10 8 4 2 -0.492014 -0.377486 -0.414676 -0.40409 -0.408954 -0.409482 -0.415647 -0.420245 -0.415647 -0.409482 -0.408954 -0.40409 -0.414676 -0.377486 -0.492014 
1.5 -6.27449 0.275535 2 4 8 10 10 10 10 10 10 10 10 10 8 4 2 -0.492051 -0.377556 -0.414883 -0.404547 -0.409755 -0.410414 -0.416985 -0.42211 -0.416985 -0.410414 -0.409755 -0.404547 -0.414883 -0.377556 -0.492051 
1.6 -6.28438 0.29584 2 4 8 10 10 10 10 10 10 10 10 10 8 4 2 -0.492113 -0.377672 -0.415204 -0.405161 -0.410639 -0.411305 -0.418192 -0.423811 -0.418192 -0.411305 -0.410639 -0.405161 -0.415204 -0.377672 -0.492113 
1.7 -6.29447 0.317469 2 4 8 10 10 10 10 10 10 10 10 10 8 4 2 -0.492214 -0.377856 -0.415671 -0.405906 -0.411522 -0.412118 -0.419275 -0.425343 -0.419275 -0.412118 -0.411522 -0.405906 -0.415671 -0.377856 -0.492214 
1.8 -6.30464 0.34003 2 4 8 10 10 10 9 10 9 10 10 10 8 4 2 -0.492378 -0.378139 -0.416295 -0.40672 -0.412332 -0.412849 -0.420255 -0.426707 -0.420255 -0.412849 -0.412332 -0.40672 -0.416295 -0.378139 -0.492378 
1.9 -6.3148 0.363191 2 4 8 10 10 10 10 10 10 10 10 10 8 4 2 -0.492637 -0.378547 -0.41705 -0.407515 -0.413027 -0.413518 -0.421153 -0.427906 -0.421153 -0.413518 -0.413027 -0.407515 -0.41705 -0.378547 -0.492637 
2 -6.32482 0.38669 2 4 8 10 10 9 10 10 10 9 10 10 8 4 2 -0.493028 -0.379084 -0.417869 -0.408218 -0.413602 -0.41415 -0.421987 -0.428946 -0.421987 -0.41415 -0.413602 -0.408218 -0.417869 -0.379084 -0.493028 
2.1 -6.33456 0.410337 2 4 8 10 10 9 10 10 10 9 10 10 8 4 2 -0.493582 -0.379715 -0.418662 -0.408785 -0.414073 -0.414774 -0.422773 -0.42983 -0.422773 -0.414774 -0.414073 -0.408785 -0.418662 -0.379715 -0.493582 
2.2 -6.3438 0.433999 2 4 8 10 10 9 10 10 10 9 10 10 8 4 2 -0.494299 -0.380363 -0.419353 -0.409209 -0.414471 -0.415411 -0.423516 -0.430561 -0.423516 -0.415411 -0.414471 -0.409209 -0.419353 -0.380363 -0.494299 
2.3 -6.35231 0.457587 2 4 8 10 10 9 10 10 10 9 10 10 8 4 2 -0.495127 -0.380929 -0.419896 -0.409505 -0.414824 -0.416077 -0.424222 -0.431144 -0.424222 -0.416077 -0.414824 -0.409505 -0.419896 -0.380929 -0.495127 
2.4 -6.3598 0.481045 2 4 8 10 10 10 10 10 10 10 10 10 8 4 2 -0.495971 -0.381323 -0.420281 -0.409705 -0.415161 -0.416779 -0.424891 -0.431584 -0.424891 -0.416779 -0.415161 -0.409705 -0.420281 -0.381323 -0.49597 
2.5 -6.36609 0.504334 2 4 8 10 10 10 10 10 10 10 10 10 8 4 2 -0.496715 -0.381487 -0.42052 -0.409838 -0.4155 -0.417519 -0.425521 -0.431889 -0.425521 -0.417519 -0.4155 -0.409838 -0.42052 -0.381487 -0.496714 
2.6 -6.37109 0.527426 2 4 8 10 10 10 10 10 10 10 10 10 8 4 2 -0.497272 -0.381403 -0.420637 -0.409935 -0.415856 -0.418295 -0.42611 -0.432069 -0.42611 -0.418295 -0.415856 -0.409935 -0.420637 -0.381403 -0.497272 
2.7 -6.37486 0.550302 2 4 8 10 10 10 10 10 10 10 10 10 8 4 2 -0.49761 -0.381089 -0.420653 -0.410017 -0.416239 -0.419101 -0.426655 -0.432132 -0.426655 -0.419101 -0.416239 -0.410017 -0.420653 -0.381089 -0.497609 
2.8 -6.37758 0.572947 2 4 8 10 10 10 10 10 10 10 10 10 8 4 2 -0.49774 -0.380581 -0.420586 -0.410102 -0.416654 -0.419928 -0.427153 -0.432091 -0.427153 -0.419928 -0.416654 -0.410102 -0.420586 -0.380581 -0.49774 
2.9 -6.37947 0.595355 2 4 8 10 10 10 11 11 11 10 10 10 8 4 2 -0.497706 -0.379927 -0.420447 -0.410203 -0.417104 -0.420768 -0.4276 -0.43196 -0.4276 -0.420768 -0.417104 -0.410203 -0.420447 -0.379927 -0.497706 
3 -6.38074 0.617527 2 4 8 10 10 11 11 11 11 11 10 10 8 4 2 -0.497556 -0.379179 -0.420241 -0.410328 -0.417587 -0.421609 -0.427995 -0.431751 -0.427995 -0.421609 -0.417587 -0.410328 -0.420241 -0.379179 -0.497556 
3.1 -6.38157 0.639474 2 4 8 10 10 11 11 12 11 11 10 10 8 4 2 -0.497329 -0.378387 -0.419971 -0.410481 -0.418101 -0.42244 -0.428336 -0.43148 -0.428336 -0.42244 -0.418101 -0.410481 -0.419971 -0.378387 -0.497329 
3.2 -6.3821 0.661211 2 4 8 10 11 12 13 13 13 12 11 10 8 4 2 -0.497055 -0.377596 -0.419639 -0.410664 -0.418643 -0.42325 -0.428624 -0.431159 -0.428624 -0.42325 -0.418643 -0.410664 -0.419639 -0.377596 -0.497055 
3.3 -6.38244 0.682764 2 4 8 11 11 13 13 13 13 13 11 11 8 4 2 -0.496751 -0.37685 -0.419245 -0.410876 -0.419207 -0.424028 -0.428859 -0.430804 -0.428859 -0.424028 -0.419207 -0.410876 -0.419245 -0.37685 -0.496751 
3.4 -6.38264 0.70416 2 4 8 11 12 13 15 15 15 13 12 11 8 4 2 -0.496426 -0.376182 -0.418791 -0.411115 -0.419787 -0.424765 -0.429042 -0.430426 -0.429042 -0.424765 -0.419787 -0.411115 -0.418791 -0.376182 -0.496426 
3.5 -6.38277 0.725428 2 4 8 12 14 15 15 15 15 15 14 12 8 4 2 -0.49608 -0.375622 -0.418282 -0.411378 -0.420377 -0.42545 -0.429176 -0.430037 -0.429176 -0.42545 -0.420377 -0.411378 -0.418282 -0.375622 -0.49608 
3.6 -6.38284 0.746594 2 4 8 13 14 15 17 17 17 15 14 13 8 4 2 -0.495714 -0.375189 -0.417725 -0.411659 -0.420969 -0.426077 -0.429264 -0.429649 -0.429264 -0.426077 -0.420969 -0.411659 -0.417725 -0.375189 -0.495714 
3.7 -6.38289 0.767684 2 4 8 13 15 17 18 18 18 17 15 13 8 4 2 -0.495326 -0.3749 -0.417131 -0.411952 -0.421555 -0.426637 -0.429309 -0.42927 -0.429309 -0.426637 -0.421555 -0.411952 -0.417131 -0.3749 -0.495326 
3.8 -6.38292 0.788718 2 4 8 14 16 18 18 19 18 18 16 14 8 4 2 -0.494914 -0.374758 -0.416512 -0.41225 -0.422128 -0.427126 -0.429316 -0.428908 -0.429316 -0.427126 -0.422128 -0.41225 -0.416512 -0.374758 -0.494914 
3.9 -6.38293 0.809716 2 4 8 14 17 18 19 19 19 18 17 14 8 4 2 -0.494479 -0.374766 -0.415885 -0.412546 -0.422678 -0.427538 -0.429289 -0.428569 -0.429289 -0.427538 -0.422679 -0.412546 -0.415885 -0.374766 -0.494479 
4 -6.38294 0.830692 2 4 8 15 18 19 20 20 20 19 18 15 8 4 2 -0.494024 -0.374915 -0.415267 -0.412832 -0.423199 -0.427872 -0.429232 -0.428258 -0.429232 -0.427872 -0.423199 -0.412832 -0.415267 -0.374915 -0.494024 
4.1 -6.38294 0.851661 2 4 8 16 19 20 20 21 20 20 19 16 8 4 2 -0.493553 -0.375193 -0.41468 -0.413102 -0.423682 -0.428125 -0.429149 -0.427977 -0.429149 -0.428125 -0.423682 -0.413102 -0.41468 -0.375193 -0.493553 
4.2 -6.38295 0.872636 2 4 8 16 20 20 21 21 21 20 20 16 8 4 2 -0.493074 -0.375584 -0.414143 -0.413348 -0.42412 -0.428297 -0.429043 -0.427728 -0.429044 -0.428297 -0.42412 -0.413348 -0.414143 -0.375584 -0.493074 
4.3 -6.38295 0.893631 2 4 8 16 20 21 22 22 22 21 20 16 8 4 2 -0.492597 -0.376067 -0.413676 -0.413565 -0.424505 -0.42839 -0.428919 -0.427512 -0.428919 -0.42839 -0.424505 -0.413565 -0.413676 -0.376067 -0.492597 
4.4 -6.38295 0.914657 2 4 8 16 21 23 24 24 24 23 21 16 8 4 2 -0.492131 -0.376618 -0.413299 -0.413748 -0.424831 -0.428406 -0.428779 -0.427327 -0.428779 -0.428405 -0.424831 -0.413748 -0.413299 -0.376618 -0.492131 
4.5 -6.38295 0.935723 2 4 8 16 22 23 24 25 24 23 22 16 8 4 2 -0.491689 -0.377214 -0.413029 -0.413893 -0.425092 -0.428347 -0.428626 -0.427172 -0.428626 -0.428347 -0.425092 -0.413893 -0.413029 -0.377214 -0.491689 
