time energy SvN bondDim localEnergy 
0 -4.73424 0.0309261 2 4 4 4 4 4 4 4 4 4 4 4 4 4 2 -0.322884 -0.314025 -0.314599 -0.314579 -0.31458 -0.31458 -0.31458 -0.31458 -0.31458 -0.31458 -0.31458 -0.314579 -0.314599 -0.314025 -0.322884 
0.1 -4.73424 0.0309266 2 4 4 4 4 4 4 4 4 4 4 4 4 4 2 -0.322885 -0.314025 -0.3146 -0.31458 -0.314581 -0.314581 -0.314581 -0.314581 -0.314581 -0.314581 -0.314581 -0.31458 -0.3146 -0.314025 -0.322884 
0.2 -4.73427 0.0309279 2 4 4 4 4 4 4 4 4 4 4 4 4 4 2 -0.322886 -0.314027 -0.314601 -0.314581 -0.314582 -0.314582 -0.314582 -0.314582 -0.314582 -0.314582 -0.314582 -0.314581 -0.314601 -0.314027 -0.322885 
0.3 -4.73429 0.0309292 2 4 4 4 4 4 4 4 4 4 4 4 4 4 2 -0.322888 -0.314028 -0.314603 -0.314583 -0.314584 -0.314584 -0.314584 -0.314584 -0.314584 -0.314584 -0.314584 -0.314583 -0.314603 -0.314028 -0.322886 
0.4 -4.7343 0.0309301 2 4 4 4 4 4 4 4 4 4 4 4 4 4 2 -0.322889 -0.314029 -0.314604 -0.314584 -0.314585 -0.314585 -0.314585 -0.314585 -0.314585 -0.314585 -0.314585 -0.314584 -0.314604 -0.314029 -0.322887 
0.5 -4.7343 0.0309299 2 4 4 4 4 4 4 4 4 4 4 4 4 4 2 -0.322889 -0.314029 -0.314604 -0.314583 -0.314585 -0.314585 -0.314585 -0.314585 -0.314585 -0.314585 -0.314585 -0.314583 -0.314604 -0.314029 -0.322887 
0.6 -4.73428 0.0309289 2 4 4 4 4 4 4 4 4 4 4 4 4 4 2 -0.322889 -0.314028 -0.314603 -0.314582 -0.314583 -0.314583 -0.314583 -0.314583 -0.314583 -0.314583 -0.314583 -0.314582 -0.314602 -0.314028 -0.322887 
0.7 -4.73426 0.0309276 2 4 4 4 4 4 4 4 4 4 4 4 4 4 2 -0.322887 -0.314026 -0.314601 -0.314581 -0.314582 -0.314582 -0.314582 -0.314582 -0.314582 -0.314582 -0.314582 -0.314581 -0.314601 -0.314026 -0.322886 
0.8 -4.73425 0.0309301 2 4 4 4 4 4 4 4 4 4 4 4 4 4 2 -0.322885 -0.314025 -0.3146 -0.314579 -0.314581 -0.31458 -0.314583 -0.314585 -0.314583 -0.31458 -0.314581 -0.314579 -0.3146 -0.314025 -0.322885 
0.9 -4.73468 0.0311261 2 4 4 4 4 4 4 4 4 4 4 4 4 4 2 -0.322884 -0.314025 -0.314599 -0.314579 -0.31458 -0.31457 -0.314692 -0.314822 -0.314692 -0.31457 -0.31458 -0.314579 -0.314599 -0.314025 -0.322884 
1 -4.74278 0.0367867 2 4 4 4 4 4 4 4 4 4 4 4 4 4 2 -0.322884 -0.314026 -0.3146 -0.31458 -0.314581 -0.314288 -0.317096 -0.318671 -0.317096 -0.314288 -0.314581 -0.31458 -0.3146 -0.314026 -0.322884 
1.1 -4.75505 0.0563947 2 4 4 4 4 4 4 4 4 4 4 4 4 4 2 -0.322885 -0.314027 -0.314602 -0.314581 -0.314577 -0.313381 -0.322777 -0.321387 -0.322777 -0.313381 -0.314577 -0.314581 -0.314602 -0.314027 -0.322885 
1.2 -4.7723 0.0904134 2 4 4 4 4 4 4 4 4 4 4 4 4 4 2 -0.322887 -0.314029 -0.314603 -0.314582 -0.314313 -0.314118 -0.328827 -0.325582 -0.328827 -0.314118 -0.314313 -0.314582 -0.314603 -0.314029 -0.322886 
1.3 -4.78484 0.133892 2 4 4 4 4 4 4 4 4 4 4 4 4 4 2 -0.322888 -0.314029 -0.314604 -0.314574 -0.313449 -0.317989 -0.329613 -0.330547 -0.329613 -0.317989 -0.313449 -0.314574 -0.314604 -0.314029 -0.322887 
1.4 -4.80204 0.182899 2 4 4 4 4 4 4 4 4 4 4 4 4 4 2 -0.322889 -0.314029 -0.314602 -0.314303 -0.314244 -0.322356 -0.33082 -0.335553 -0.33082 -0.322356 -0.314244 -0.314303 -0.314602 -0.314029 -0.322887 
1.5 -4.81465 0.234501 2 4 4 4 4 4 4 4 4 4 4 4 4 4 2 -0.322889 -0.314027 -0.314593 -0.313427 -0.318176 -0.321635 -0.332312 -0.340529 -0.332313 -0.321636 -0.318176 -0.313427 -0.314592 -0.314027 -0.322887 
1.6 -4.83191 0.286577 2 4 4 4 4 4 4 5 4 4 4 4 4 4 2 -0.322888 -0.314024 -0.314321 -0.314206 -0.322574 -0.321437 -0.3338 -0.345411 -0.333801 -0.321437 -0.322574 -0.314206 -0.314321 -0.314025 -0.322886 
1.7 -4.84452 0.337727 2 4 4 4 4 4 5 5 5 4 4 4 4 4 2 -0.322886 -0.314015 -0.313445 -0.318114 -0.3218 -0.321623 -0.335312 -0.350133 -0.335312 -0.321623 -0.3218 -0.318114 -0.313445 -0.314015 -0.322885 
1.8 -4.86179 0.387186 2 4 4 4 4 5 5 6 5 5 4 4 4 4 2 -0.322883 -0.313745 -0.314227 -0.322479 -0.321472 -0.321903 -0.336871 -0.354633 -0.336871 -0.321904 -0.321472 -0.322479 -0.314227 -0.313745 -0.322883 
1.9 -4.87442 0.434708 2 4 4 4 4 5 6 7 6 5 4 4 4 4 2 -0.322874 -0.312874 -0.318136 -0.321661 -0.321445 -0.322294 -0.338496 -0.358854 -0.338496 -0.322295 -0.321446 -0.321661 -0.318137 -0.312874 -0.322874 
2 -4.89169 0.480437 2 4 4 4 5 6 7 8 7 6 5 4 4 4 2 -0.3226 -0.313659 -0.322502 -0.321276 -0.321425 -0.32281 -0.340198 -0.362749 -0.340199 -0.322811 -0.321425 -0.321276 -0.322502 -0.313659 -0.3226 
2.1 -4.90431 0.52475 2 4 4 4 5 7 8 8 8 7 5 4 4 4 2 -0.321716 -0.317575 -0.321679 -0.321177 -0.321425 -0.323458 -0.341985 -0.36628 -0.341985 -0.323459 -0.321425 -0.321177 -0.32168 -0.317575 -0.321715 
2.2 -4.92199 0.568111 2 4 4 5 6 8 8 8 8 8 6 5 4 4 2 -0.322435 -0.321938 -0.321288 -0.321064 -0.321463 -0.324242 -0.343853 -0.369419 -0.343854 -0.324242 -0.321463 -0.321065 -0.321289 -0.321939 -0.322433 
2.3 -4.93556 0.610949 2 4 5 5 7 8 8 8 8 8 7 5 5 4 2 -0.325984 -0.32108 -0.321179 -0.320951 -0.321551 -0.325162 -0.345796 -0.372151 -0.345796 -0.325162 -0.321552 -0.320952 -0.321179 -0.321081 -0.325982 
2.4 -4.94943 0.653577 2 4 5 6 8 8 8 8 8 8 8 6 5 4 2 -0.329316 -0.320547 -0.321048 -0.32085 -0.321705 -0.326215 -0.347799 -0.374471 -0.347799 -0.326215 -0.321705 -0.320851 -0.321049 -0.320548 -0.329315 
2.5 -4.95031 0.696156 2 4 5 7 8 8 9 9 9 8 8 7 5 4 2 -0.325982 -0.320136 -0.320899 -0.32077 -0.321933 -0.327396 -0.349844 -0.376389 -0.349844 -0.327397 -0.321934 -0.320771 -0.3209 -0.320137 -0.325981 
2.6 -4.95034 0.738709 2 4 6 8 8 9 10 10 10 9 8 8 6 4 2 -0.322372 -0.319531 -0.320732 -0.32072 -0.322248 -0.328697 -0.351907 -0.37792 -0.351907 -0.328698 -0.322248 -0.320721 -0.320732 -0.319531 -0.322371 
2.7 -4.95034 0.781152 2 4 7 8 8 10 10 10 10 10 8 8 7 4 2 -0.318886 -0.318761 -0.32054 -0.320706 -0.322656 -0.330108 -0.353963 -0.379095 -0.353963 -0.330109 -0.322656 -0.320707 -0.32054 -0.318761 -0.318885 
2.8 -4.95034 0.823356 2 4 8 8 9 10 11 11 11 10 9 8 8 4 2 -0.315502 -0.317878 -0.320315 -0.320733 -0.323162 -0.331619 -0.355985 -0.379946 -0.355985 -0.331619 -0.323163 -0.320734 -0.320316 -0.317879 -0.315501 
2.9 -4.95034 0.865196 2 4 8 8 10 11 12 12 12 11 10 8 8 4 2 -0.312185 -0.31694 -0.320048 -0.320803 -0.323771 -0.333215 -0.357947 -0.380514 -0.357947 -0.333216 -0.323772 -0.320804 -0.320049 -0.316941 -0.312184 
3 -4.95034 0.906594 2 4 8 9 10 11 13 13 13 11 10 9 8 4 2 -0.3089 -0.316006 -0.319729 -0.320918 -0.324484 -0.334885 -0.359823 -0.380844 -0.359823 -0.334886 -0.324484 -0.320918 -0.31973 -0.316007 -0.308899 
3.1 -4.95034 0.947533 2 4 8 10 11 13 13 14 13 13 11 10 8 4 2 -0.305616 -0.315134 -0.319347 -0.321076 -0.3253 -0.336615 -0.361591 -0.380978 -0.36159 -0.336616 -0.3253 -0.321076 -0.319348 -0.315134 -0.305615 
3.2 -4.95034 0.98806 2 4 8 10 11 13 14 15 14 13 11 10 8 4 2 -0.302306 -0.314372 -0.318895 -0.321276 -0.326215 -0.338391 -0.363231 -0.380962 -0.363231 -0.338392 -0.326215 -0.321276 -0.318895 -0.314372 -0.302306 
3.3 -4.95034 1.02827 2 4 8 11 13 14 15 15 15 14 13 11 8 4 2 -0.29895 -0.313764 -0.318367 -0.321515 -0.327227 -0.340197 -0.36473 -0.380836 -0.36473 -0.340198 -0.327227 -0.321515 -0.318367 -0.313764 -0.29895 
3.4 -4.95034 1.06826 2 4 8 12 13 15 17 17 17 15 13 12 8 4 2 -0.295535 -0.313338 -0.317763 -0.32179 -0.328327 -0.34202 -0.366078 -0.380636 -0.366077 -0.34202 -0.328327 -0.32179 -0.317764 -0.313338 -0.295534 
3.5 -4.95034 1.10813 2 4 8 13 14 16 18 18 18 16 14 13 8 4 2 -0.292055 -0.313109 -0.317089 -0.322097 -0.329509 -0.343843 -0.367269 -0.380394 -0.367269 -0.343843 -0.32951 -0.322097 -0.31709 -0.313109 -0.292054 
3.6 -4.95034 1.14795 2 4 8 13 16 18 18 18 18 18 16 13 8 4 2 -0.288513 -0.313079 -0.316359 -0.322432 -0.330763 -0.345651 -0.368304 -0.380135 -0.368304 -0.345651 -0.330764 -0.322432 -0.31636 -0.313079 -0.288513 
3.7 -4.95034 1.18774 2 4 8 14 18 18 19 19 19 18 18 14 8 4 2 -0.28492 -0.313232 -0.315593 -0.322789 -0.332078 -0.347429 -0.369188 -0.379878 -0.369187 -0.347429 -0.332079 -0.32279 -0.315594 -0.313232 -0.28492 
3.8 -4.95034 1.22749 2 4 8 15 18 19 20 21 20 19 18 15 8 4 2 -0.281292 -0.31354 -0.31482 -0.323165 -0.333441 -0.349162 -0.369929 -0.379635 -0.369928 -0.349163 -0.333442 -0.323165 -0.31482 -0.31354 -0.281292 
