time energy SvN bondDim localEnergy 
0 -6.21823 0.188873 2 4 8 10 10 10 10 10 10 10 10 10 8 4 2 -0.491956 -0.377378 -0.414348 -0.403255 -0.40692 -0.405773 -0.406312 -0.406345 -0.406312 -0.405773 -0.40692 -0.403255 -0.414348 -0.377378 -0.491956 
0.1 -6.21824 0.188886 2 4 8 10 10 10 10 10 10 10 10 10 8 4 2 -0.491956 -0.377378 -0.414348 -0.403255 -0.40692 -0.405773 -0.406315 -0.406351 -0.406315 -0.405773 -0.40692 -0.403255 -0.414348 -0.377378 -0.491956 
0.2 -6.21829 0.188944 2 4 8 10 10 10 10 10 10 10 10 10 8 4 2 -0.491956 -0.377378 -0.414348 -0.403255 -0.406919 -0.405771 -0.406327 -0.406378 -0.406327 -0.405771 -0.406919 -0.403255 -0.414348 -0.377378 -0.491956 
0.3 -6.21842 0.189099 2 4 8 10 10 10 10 10 10 10 10 10 8 4 2 -0.491956 -0.377378 -0.414348 -0.403255 -0.406919 -0.405768 -0.40636 -0.406449 -0.40636 -0.405768 -0.406919 -0.403255 -0.414348 -0.377378 -0.491956 
0.4 -6.21869 0.189429 2 4 8 10 10 10 10 10 10 10 10 10 8 4 2 -0.491956 -0.377378 -0.414348 -0.403254 -0.406917 -0.40576 -0.40643 -0.4066 -0.40643 -0.40576 -0.406917 -0.403254 -0.414348 -0.377378 -0.491956 
0.5 -6.21919 0.190055 2 4 8 10 10 10 10 10 10 10 10 10 8 4 2 -0.491956 -0.377378 -0.414348 -0.403254 -0.406914 -0.405746 -0.406559 -0.406879 -0.406559 -0.405746 -0.406914 -0.403254 -0.414348 -0.377378 -0.491956 
0.6 -6.22005 0.191154 2 4 8 10 10 10 10 10 10 10 10 10 8 4 2 -0.491956 -0.377378 -0.414347 -0.403252 -0.406909 -0.405723 -0.406782 -0.407353 -0.406782 -0.405723 -0.406909 -0.403252 -0.414347 -0.377378 -0.491956 
0.7 -6.22142 0.192982 2 4 8 10 10 10 10 10 10 10 10 10 8 4 2 -0.491956 -0.377378 -0.414347 -0.403249 -0.4069 -0.405688 -0.40714 -0.408103 -0.40714 -0.405688 -0.4069 -0.403249 -0.414347 -0.377378 -0.491956 
0.8 -6.22348 0.195884 2 4 8 10 10 10 10 10 10 10 10 10 8 4 2 -0.491956 -0.377378 -0.414346 -0.403245 -0.406887 -0.40564 -0.407682 -0.409211 -0.407682 -0.40564 -0.406887 -0.403245 -0.414346 -0.377378 -0.491956 
0.9 -6.22637 0.200282 2 4 8 10 10 10 10 10 10 10 10 10 8 4 2 -0.491956 -0.377378 -0.414344 -0.403237 -0.406867 -0.405585 -0.408451 -0.410732 -0.408451 -0.405585 -0.406867 -0.403237 -0.414344 -0.377378 -0.491956 
1 -6.23016 0.206626 2 4 8 10 10 10 10 10 10 10 10 10 8 4 2 -0.491956 -0.377377 -0.414341 -0.403225 -0.406838 -0.405541 -0.40947 -0.412667 -0.40947 -0.405541 -0.406838 -0.403225 -0.414341 -0.377377 -0.491956 
1.1 -6.23484 0.215309 2 4 8 10 10 10 10 10 10 10 10 10 8 4 2 -0.491956 -0.377376 -0.414336 -0.403205 -0.406802 -0.405542 -0.410729 -0.41495 -0.410729 -0.405542 -0.406802 -0.403205 -0.414336 -0.377376 -0.491955 
1.2 -6.24029 0.226574 2 4 8 10 10 10 10 10 10 10 10 10 8 4 2 -0.491955 -0.377375 -0.414329 -0.403176 -0.406763 -0.405637 -0.412176 -0.41747 -0.412176 -0.405637 -0.406763 -0.403176 -0.414329 -0.377375 -0.491955 
1.3 -6.24636 0.240452 2 4 8 10 10 10 10 10 10 10 10 10 8 4 2 -0.491954 -0.377372 -0.414316 -0.403132 -0.406737 -0.405876 -0.413735 -0.420108 -0.413735 -0.405876 -0.406737 -0.403132 -0.414316 -0.377372 -0.491954 
1.4 -6.25288 0.256767 2 4 8 10 10 10 10 10 10 10 10 10 8 4 2 -0.491953 -0.377369 -0.414297 -0.403074 -0.406757 -0.406291 -0.415321 -0.42276 -0.415321 -0.406291 -0.406757 -0.403074 -0.414297 -0.377369 -0.491953 
1.5 -6.25974 0.275176 2 4 8 10 10 10 10 10 10 10 10 10 8 4 2 -0.491951 -0.377362 -0.414268 -0.403003 -0.406865 -0.406881 -0.41687 -0.425343 -0.41687 -0.406881 -0.406865 -0.403003 -0.414268 -0.377362 -0.491951 
1.6 -6.26684 0.295249 2 4 8 10 10 10 10 10 10 10 10 10 8 4 2 -0.491948 -0.377353 -0.414225 -0.402933 -0.407105 -0.407612 -0.418345 -0.427798 -0.418345 -0.407612 -0.407105 -0.402933 -0.414225 -0.377353 -0.491948 
1.7 -6.2741 0.316531 2 4 8 10 10 10 10 10 10 10 10 10 8 4 2 -0.491943 -0.377337 -0.414167 -0.402891 -0.407502 -0.408434 -0.419737 -0.430084 -0.419737 -0.408434 -0.407502 -0.402891 -0.414167 -0.377337 -0.491943 
1.8 -6.28149 0.338601 2 4 8 10 10 10 10 10 10 10 10 10 8 4 2 -0.491934 -0.377314 -0.414095 -0.402918 -0.408048 -0.409301 -0.421051 -0.432169 -0.421051 -0.409301 -0.408048 -0.402918 -0.414095 -0.377314 -0.491934 
1.9 -6.28897 0.361096 2 4 8 10 10 9 10 10 10 9 10 10 8 4 2 -0.491921 -0.377281 -0.414019 -0.403056 -0.408699 -0.410191 -0.422299 -0.434034 -0.422299 -0.410191 -0.408699 -0.403056 -0.414019 -0.377281 -0.491921 
2 -6.29651 0.383734 2 4 8 10 10 9 10 10 10 9 10 10 8 4 2 -0.4919 -0.377237 -0.413965 -0.403335 -0.409393 -0.411102 -0.423489 -0.435665 -0.423489 -0.411102 -0.409393 -0.403335 -0.413965 -0.377237 -0.4919 
2.1 -6.3041 0.406307 2 4 8 10 10 9 10 10 10 9 10 10 8 4 2 -0.491868 -0.377184 -0.413969 -0.403749 -0.410075 -0.412045 -0.424632 -0.437053 -0.424632 -0.412045 -0.410075 -0.403749 -0.413969 -0.377184 -0.491868 
2.2 -6.31173 0.428673 2 4 8 10 10 9 10 10 10 9 10 10 8 4 2 -0.491821 -0.377133 -0.414075 -0.404257 -0.410714 -0.413035 -0.425731 -0.438195 -0.425731 -0.413035 -0.410714 -0.404257 -0.414075 -0.377133 -0.491821 
2.3 -6.31938 0.45074 2 4 8 10 10 9 10 10 10 9 10 10 8 4 2 -0.491754 -0.377108 -0.414307 -0.404798 -0.411306 -0.414085 -0.426787 -0.43909 -0.426787 -0.414085 -0.411306 -0.404798 -0.414307 -0.377108 -0.491754 
2.4 -6.32705 0.472453 2 4 8 10 10 9 10 10 10 9 10 10 8 4 2 -0.491667 -0.377146 -0.414659 -0.405313 -0.411864 -0.415204 -0.427798 -0.439745 -0.427798 -0.415205 -0.411864 -0.405313 -0.414659 -0.377146 -0.491667 
2.5 -6.33472 0.493775 2 4 8 10 10 10 10 10 10 10 10 10 8 4 2 -0.491566 -0.377289 -0.415089 -0.405767 -0.412412 -0.416395 -0.428761 -0.440167 -0.428761 -0.416395 -0.412412 -0.405767 -0.415089 -0.377289 -0.491566 
2.6 -6.34239 0.514684 2 4 8 10 10 10 10 10 10 10 10 10 8 4 2 -0.491467 -0.377567 -0.41553 -0.406151 -0.41297 -0.417654 -0.429669 -0.440372 -0.429669 -0.417654 -0.41297 -0.406151 -0.41553 -0.377567 -0.491466 
2.7 -6.35002 0.535164 2 4 8 10 10 10 10 10 10 10 10 10 8 4 2 -0.491398 -0.377978 -0.415915 -0.406478 -0.41356 -0.418975 -0.430516 -0.440375 -0.430516 -0.418975 -0.41356 -0.406478 -0.415915 -0.377978 -0.491398 
2.8 -6.35756 0.555206 2 4 8 10 10 10 10 10 10 10 10 10 8 4 2 -0.491388 -0.378484 -0.416201 -0.40677 -0.414197 -0.420343 -0.431296 -0.440198 -0.431296 -0.420343 -0.414197 -0.40677 -0.416201 -0.378484 -0.491388 
2.9 -6.36492 0.57481 2 4 8 10 10 10 10 10 10 10 10 10 8 4 2 -0.491447 -0.379014 -0.416377 -0.407052 -0.414891 -0.421745 -0.432003 -0.439861 -0.432003 -0.421745 -0.414891 -0.407052 -0.416377 -0.379014 -0.491447 
3 -6.37195 0.593984 2 4 8 10 10 10 10 10 10 10 10 10 8 4 2 -0.491542 -0.379494 -0.41645 -0.407348 -0.415649 -0.423163 -0.432632 -0.43939 -0.432632 -0.423163 -0.415649 -0.407348 -0.41645 -0.379494 -0.491542 
3.1 -6.37844 0.61275 2 4 8 10 10 10 11 11 11 10 10 10 8 4 2 -0.4916 -0.379865 -0.416439 -0.407679 -0.416472 -0.424577 -0.43318 -0.43881 -0.43318 -0.424577 -0.416472 -0.407679 -0.416439 -0.379865 -0.4916 
3.2 -6.38418 0.631143 2 4 8 10 10 10 11 11 11 10 10 10 8 4 2 -0.491518 -0.380098 -0.416367 -0.408061 -0.417358 -0.425969 -0.433645 -0.438146 -0.433645 -0.425969 -0.417358 -0.408061 -0.416367 -0.380098 -0.491518 
3.3 -6.389 0.649208 2 4 8 10 10 11 11 12 12 11 10 10 8 4 2 -0.491198 -0.380185 -0.41625 -0.408507 -0.418303 -0.427319 -0.434026 -0.437423 -0.434026 -0.427319 -0.418303 -0.408507 -0.416249 -0.380185 -0.491198 
3.4 -6.39283 0.666999 2 4 8 10 10 11 13 13 13 11 10 10 8 4 2 -0.490585 -0.38014 -0.416101 -0.409023 -0.419298 -0.428609 -0.434326 -0.436665 -0.434326 -0.428609 -0.419298 -0.409023 -0.416101 -0.38014 -0.490585 
3.5 -6.39572 0.684569 2 4 8 10 10 12 13 13 13 12 10 10 8 4 2 -0.489679 -0.379987 -0.415928 -0.409612 -0.420335 -0.429822 -0.434547 -0.435895 -0.434547 -0.429822 -0.420335 -0.409612 -0.415928 -0.379987 -0.489679 
3.6 -6.3978 0.701974 2 4 8 10 11 13 14 15 14 13 11 10 8 4 2 -0.488521 -0.379757 -0.415738 -0.410275 -0.421403 -0.430943 -0.434694 -0.435133 -0.434694 -0.430943 -0.421403 -0.410275 -0.415738 -0.379757 -0.488521 
3.7 -6.39923 0.719262 2 4 8 11 11 13 15 15 15 13 12 11 8 4 2 -0.487174 -0.379486 -0.415531 -0.411005 -0.42249 -0.43196 -0.434773 -0.434397 -0.434773 -0.43196 -0.42249 -0.411005 -0.415531 -0.379486 -0.487174 
3.8 -6.4002 0.736473 2 4 8 11 12 14 15 16 15 14 12 11 8 4 2 -0.485699 -0.379209 -0.415309 -0.411798 -0.423584 -0.432861 -0.43479 -0.433702 -0.434791 -0.432861 -0.423584 -0.411798 -0.415309 -0.379209 -0.485699 
3.9 -6.40083 0.753642 2 4 8 11 14 15 17 17 17 15 14 12 8 4 2 -0.484148 -0.378959 -0.415073 -0.412641 -0.424672 -0.433638 -0.434754 -0.433062 -0.434754 -0.433638 -0.424672 -0.412641 -0.415073 -0.378959 -0.484148 
4 -6.40124 0.770795 2 4 8 13 14 16 18 18 18 16 14 12 8 4 2 -0.482559 -0.378766 -0.414826 -0.413524 -0.425741 -0.434287 -0.434672 -0.432485 -0.434672 -0.434287 -0.425741 -0.413524 -0.414826 -0.378766 -0.482559 
4.1 -6.40149 0.787954 2 4 8 13 15 17 18 19 18 17 15 13 8 4 2 -0.480962 -0.378655 -0.414572 -0.414431 -0.426779 -0.434805 -0.434552 -0.431979 -0.434552 -0.434805 -0.426779 -0.414431 -0.414572 -0.378655 -0.480962 
4.2 -6.40165 0.805139 2 4 8 13 16 18 19 19 19 18 16 13 8 4 2 -0.479374 -0.378643 -0.414319 -0.415348 -0.427773 -0.435192 -0.434402 -0.431549 -0.434402 -0.435191 -0.427773 -0.415348 -0.414319 -0.378643 -0.479374 
4.3 -6.40174 0.822366 2 4 8 14 17 18 20 20 20 18 17 14 8 4 2 -0.47781 -0.378742 -0.414075 -0.416258 -0.42871 -0.435449 -0.434229 -0.431196 -0.434229 -0.435449 -0.428711 -0.416258 -0.414075 -0.378742 -0.47781 
4.4 -6.4018 0.839654 2 4 8 14 18 19 20 21 20 19 17 14 8 4 2 -0.476283 -0.378958 -0.413851 -0.417144 -0.429581 -0.435582 -0.434041 -0.430919 -0.434042 -0.435582 -0.429582 -0.417144 -0.413851 -0.378958 -0.476283 
4.5 -6.40184 0.857017 2 4 8 15 19 20 21 21 21 20 19 15 8 4 2 -0.474804 -0.379287 -0.413663 -0.417988 -0.430375 -0.435598 -0.433844 -0.430718 -0.433844 -0.435598 -0.430375 -0.417988 -0.413663 -0.379287 -0.474804 
4.6 -6.40186 0.874468 2 4 8 16 20 20 22 22 22 20 20 16 8 4 2 -0.473383 -0.379723 -0.413524 -0.418774 -0.431083 -0.435505 -0.433643 -0.430587 -0.433643 -0.435505 -0.431083 -0.418774 -0.413524 -0.379723 -0.473384 
4.7 -6.40187 0.892012 2 4 8 16 20 21 23 24 23 21 20 16 8 4 2 -0.472036 -0.38025 -0.413451 -0.419486 -0.431697 -0.435313 -0.433442 -0.430521 -0.433442 -0.435313 -0.431697 -0.419486 -0.413451 -0.38025 -0.472036 
4.8 -6.40188 0.909653 2 4 8 16 21 23 24 25 24 23 21 16 8 4 2 -0.470776 -0.380851 -0.41346 -0.42011 -0.432209 -0.435033 -0.433243 -0.430513 -0.433243 -0.435033 -0.432209 -0.42011 -0.41346 -0.380851 -0.470776 
4.9 -6.40188 0.927385 2 4 8 16 21 23 26 27 26 23 21 16 8 4 2 -0.469619 -0.381502 -0.413567 -0.420633 -0.432616 -0.434675 -0.433051 -0.430556 -0.433051 -0.434675 -0.432616 -0.420633 -0.413567 -0.381502 -0.469619 
5 -6.40188 0.945199 2 4 8 16 22 25 27 28 27 25 22 16 8 4 2 -0.468583 -0.382177 -0.413786 -0.421045 -0.432913 -0.434253 -0.432865 -0.430641 -0.432864 -0.434253 -0.432912 -0.421045 -0.413786 -0.382177 -0.468584 
5.1 -6.40188 0.963079 2 4 8 16 23 27 28 29 28 27 23 16 8 4 2 -0.467688 -0.382849 -0.414128 -0.421338 -0.433097 -0.433776 -0.432686 -0.43076 -0.432685 -0.433777 -0.433097 -0.421339 -0.414127 -0.382849 -0.467688 
5.2 -6.40189 0.981012 2 4 8 16 24 27 29 30 29 27 24 16 8 4 2 -0.466952 -0.383488 -0.414601 -0.421509 -0.433169 -0.433258 -0.432514 -0.430904 -0.432513 -0.433259 -0.433168 -0.42151 -0.414601 -0.383488 -0.466952 
5.3 -6.40189 0.998982 2 4 8 16 25 29 30 31 30 29 25 16 8 4 2 -0.466394 -0.384066 -0.415213 -0.421556 -0.433128 -0.432708 -0.432347 -0.431063 -0.432346 -0.432709 -0.433127 -0.421557 -0.415212 -0.384066 -0.466394 
