time energy SvN bondDim localEnergy 
0 -5.06553 0.0526194 2 4 5 5 5 5 5 5 5 5 5 5 5 4 2 -0.352039 -0.334061 -0.335845 -0.335729 -0.33574 -0.335739 -0.33574 -0.335742 -0.33574 -0.335739 -0.33574 -0.335729 -0.335845 -0.334061 -0.352039 
0.1 -5.06553 0.0526202 2 4 5 5 5 5 5 5 5 5 5 5 5 4 2 -0.352039 -0.334061 -0.335845 -0.335729 -0.33574 -0.335739 -0.335741 -0.335743 -0.335741 -0.335739 -0.33574 -0.335729 -0.335845 -0.334061 -0.352039 
0.2 -5.06554 0.0526242 2 4 5 5 5 5 5 5 5 5 5 5 5 4 2 -0.352039 -0.334061 -0.335845 -0.335729 -0.33574 -0.335739 -0.335742 -0.335746 -0.335742 -0.335739 -0.33574 -0.335729 -0.335845 -0.334061 -0.352039 
0.3 -5.06557 0.0526371 2 4 5 5 5 5 5 5 5 5 5 5 5 4 2 -0.35204 -0.334062 -0.335845 -0.33573 -0.33574 -0.335738 -0.335748 -0.335759 -0.335748 -0.335738 -0.33574 -0.33573 -0.335845 -0.334062 -0.352039 
0.4 -5.06563 0.0526741 2 4 5 5 5 5 5 5 5 5 5 5 5 4 2 -0.35204 -0.334062 -0.335846 -0.33573 -0.335741 -0.335737 -0.335764 -0.335795 -0.335764 -0.335737 -0.335741 -0.33573 -0.335846 -0.334062 -0.35204 
0.5 -5.06581 0.0527755 2 4 5 5 5 5 5 5 5 5 5 5 5 4 2 -0.352041 -0.334062 -0.335846 -0.33573 -0.335741 -0.335731 -0.335808 -0.335892 -0.335808 -0.335731 -0.335741 -0.33573 -0.335846 -0.334062 -0.35204 
0.6 -5.06628 0.0530489 2 4 5 5 5 5 5 5 5 5 5 5 5 4 2 -0.352041 -0.334062 -0.335846 -0.33573 -0.335741 -0.335716 -0.335924 -0.336154 -0.335924 -0.335716 -0.335741 -0.33573 -0.335846 -0.334062 -0.35204 
0.7 -5.06748 0.053777 2 4 5 5 5 5 5 5 5 5 5 5 5 4 2 -0.352041 -0.334062 -0.335846 -0.33573 -0.335741 -0.335676 -0.336229 -0.336834 -0.336229 -0.335676 -0.335741 -0.33573 -0.335846 -0.334062 -0.35204 
0.8 -5.07044 0.0556576 2 4 5 5 5 5 5 5 5 5 5 5 5 4 2 -0.352041 -0.334062 -0.335846 -0.33573 -0.335741 -0.335572 -0.336987 -0.338487 -0.336987 -0.335572 -0.335741 -0.33573 -0.335846 -0.334062 -0.35204 
0.9 -5.07675 0.0601911 2 4 5 5 5 5 5 5 5 5 5 5 5 4 2 -0.35204 -0.334061 -0.335845 -0.335729 -0.335742 -0.335324 -0.338662 -0.341943 -0.338662 -0.335324 -0.335742 -0.335729 -0.335845 -0.334062 -0.35204 
1 -5.0874 0.0698073 2 4 5 5 5 5 5 5 5 5 5 5 5 4 2 -0.35204 -0.334061 -0.335845 -0.335728 -0.335742 -0.334805 -0.341716 -0.347529 -0.341716 -0.334805 -0.335742 -0.335728 -0.335845 -0.334061 -0.35204 
1.1 -5.10145 0.0869443 2 4 5 5 5 5 4 4 4 5 5 5 5 4 2 -0.35204 -0.334061 -0.335845 -0.335726 -0.335743 -0.333908 -0.346231 -0.354346 -0.346232 -0.333908 -0.335743 -0.335726 -0.335845 -0.334061 -0.352039 
1.2 -5.11759 0.112546 2 4 5 5 5 5 4 4 4 5 5 5 5 4 2 -0.352039 -0.334061 -0.335845 -0.335723 -0.335734 -0.332685 -0.351919 -0.361579 -0.351919 -0.332685 -0.335734 -0.335723 -0.335845 -0.334061 -0.352039 
1.3 -5.13537 0.145689 2 4 5 5 5 5 4 4 4 5 5 5 5 4 2 -0.352039 -0.334061 -0.335845 -0.335717 -0.335685 -0.331468 -0.358147 -0.369448 -0.358147 -0.331468 -0.335685 -0.335717 -0.335845 -0.334061 -0.352039 
1.4 -5.15434 0.184428 2 4 5 5 5 5 4 4 4 5 5 5 5 4 2 -0.352039 -0.334061 -0.335845 -0.335708 -0.335525 -0.330905 -0.363862 -0.378452 -0.363862 -0.330905 -0.335525 -0.335708 -0.335845 -0.334061 -0.352039 
1.5 -5.17334 0.22662 2 4 5 5 5 5 4 4 4 5 5 5 5 4 2 -0.352039 -0.334062 -0.335845 -0.335694 -0.335128 -0.331689 -0.367893 -0.388646 -0.367893 -0.331689 -0.335128 -0.335694 -0.335845 -0.334062 -0.352039 
1.6 -5.19142 0.270327 2 4 5 5 5 5 4 4 4 5 5 5 5 4 2 -0.35204 -0.334062 -0.335845 -0.335675 -0.334384 -0.334121 -0.369797 -0.399572 -0.369798 -0.334121 -0.334384 -0.335675 -0.335845 -0.334062 -0.352039 
1.7 -5.20911 0.31395 2 4 5 5 5 5 5 4 5 5 5 5 5 4 2 -0.35204 -0.334062 -0.335843 -0.335643 -0.333325 -0.338085 -0.370256 -0.410604 -0.370256 -0.338085 -0.333325 -0.335643 -0.335843 -0.334062 -0.352039 
1.8 -5.22759 0.356285 2 4 5 5 5 5 5 5 5 5 5 5 5 4 2 -0.35204 -0.334062 -0.335839 -0.335569 -0.332253 -0.343088 -0.370322 -0.421243 -0.370323 -0.343089 -0.332253 -0.335569 -0.335839 -0.334062 -0.35204 
1.9 -5.24712 0.396529 2 4 5 5 5 5 5 5 5 5 5 5 5 4 2 -0.352041 -0.334062 -0.335831 -0.335383 -0.331773 -0.34816 -0.370726 -0.431171 -0.370726 -0.348161 -0.331773 -0.335383 -0.335831 -0.334062 -0.35204 
2 -5.2667 0.434263 2 4 5 5 5 5 5 5 5 5 5 5 5 4 2 -0.352041 -0.334061 -0.335819 -0.334963 -0.33254 -0.352098 -0.371735 -0.440189 -0.371735 -0.352098 -0.33254 -0.334963 -0.335819 -0.334061 -0.35204 
2.1 -5.28527 0.469392 2 4 5 5 5 5 6 6 6 5 5 5 5 4 2 -0.352041 -0.334059 -0.335801 -0.3342 -0.334827 -0.354316 -0.373314 -0.448158 -0.373315 -0.354316 -0.334827 -0.3342 -0.335801 -0.334059 -0.35204 
2.2 -5.30333 0.502074 2 4 5 5 5 5 6 7 6 5 5 5 5 4 2 -0.352041 -0.334057 -0.335769 -0.333128 -0.338499 -0.355346 -0.375342 -0.454966 -0.375342 -0.355346 -0.338499 -0.333128 -0.335769 -0.334057 -0.35204 
2.3 -5.32204 0.532621 2 4 5 5 5 6 6 7 6 6 5 5 5 4 2 -0.35204 -0.334052 -0.335695 -0.332052 -0.343034 -0.356152 -0.377732 -0.460528 -0.377732 -0.356152 -0.343034 -0.332052 -0.335695 -0.334052 -0.352039 
2.4 -5.3417 0.561402 2 4 5 5 5 6 7 8 7 6 5 5 5 4 2 -0.352039 -0.334044 -0.335507 -0.331579 -0.347429 -0.357414 -0.380443 -0.464789 -0.380443 -0.357415 -0.34743 -0.331579 -0.335507 -0.334044 -0.352039 
2.5 -5.36135 0.588757 2 4 5 5 5 6 8 8 8 6 5 5 5 4 2 -0.352039 -0.334033 -0.335082 -0.332367 -0.350456 -0.359377 -0.383452 -0.467736 -0.383452 -0.359377 -0.350457 -0.332367 -0.335082 -0.334033 -0.352038 
2.6 -5.37996 0.614932 2 4 5 5 5 7 8 8 8 7 5 5 5 4 2 -0.352037 -0.334016 -0.334313 -0.33469 -0.351521 -0.361982 -0.386726 -0.469393 -0.386726 -0.361982 -0.351521 -0.334691 -0.334313 -0.334016 -0.352037 
2.7 -5.39807 0.640046 2 4 5 5 5 7 8 8 8 7 5 5 5 4 2 -0.352035 -0.333985 -0.333229 -0.33842 -0.351161 -0.365079 -0.390213 -0.469824 -0.390213 -0.36508 -0.351161 -0.33842 -0.333229 -0.333985 -0.352035 
2.8 -5.41687 0.664098 2 4 5 5 5 8 8 8 8 8 5 5 5 4 2 -0.35203 -0.333913 -0.332134 -0.343043 -0.350351 -0.368555 -0.393843 -0.469127 -0.393843 -0.368555 -0.350351 -0.343044 -0.332134 -0.333913 -0.35203 
2.9 -5.43666 0.686997 2 4 5 5 6 8 8 8 8 8 6 5 5 4 2 -0.352022 -0.333727 -0.331633 -0.347564 -0.349787 -0.372345 -0.397537 -0.467425 -0.397537 -0.372345 -0.349787 -0.347564 -0.331633 -0.333727 -0.352022 
3 -5.45644 0.708616 2 4 5 5 7 8 8 8 8 8 7 5 5 4 2 -0.352011 -0.333307 -0.332376 -0.350739 -0.349735 -0.376412 -0.401208 -0.464863 -0.401208 -0.376412 -0.349735 -0.35074 -0.332376 -0.333307 -0.35201 
3.1 -5.47517 0.728846 2 4 5 5 7 8 8 9 8 8 7 5 5 4 2 -0.351994 -0.332545 -0.334633 -0.35195 -0.350174 -0.380716 -0.404772 -0.4616 -0.404772 -0.380716 -0.350174 -0.351951 -0.334633 -0.332545 -0.351993 
3.2 -5.49334 0.747648 2 4 5 5 7 8 9 9 9 8 7 5 5 4 2 -0.351962 -0.331472 -0.338265 -0.351712 -0.351003 -0.385205 -0.408151 -0.457802 -0.408151 -0.385205 -0.351003 -0.351712 -0.338266 -0.331472 -0.351962 
3.3 -5.51218 0.76509 2 4 5 6 8 8 9 10 9 8 8 6 5 4 2 -0.351889 -0.330392 -0.342754 -0.350987 -0.352162 -0.389812 -0.411275 -0.453636 -0.411275 -0.389812 -0.352162 -0.350987 -0.342754 -0.330392 -0.351888 
3.4 -5.53197 0.781355 2 4 5 6 8 8 10 10 10 8 8 6 5 4 2 -0.351701 -0.329908 -0.347091 -0.350462 -0.353644 -0.394462 -0.414085 -0.449264 -0.414085 -0.394462 -0.353645 -0.350462 -0.347091 -0.329909 -0.3517 
3.5 -5.55175 0.79673 2 4 5 7 8 9 10 11 10 9 8 7 5 4 2 -0.351276 -0.330675 -0.350029 -0.350394 -0.355469 -0.399075 -0.416538 -0.444834 -0.416538 -0.399075 -0.355469 -0.350394 -0.35003 -0.330675 -0.351275 
3.6 -5.57047 0.811568 2 4 5 7 8 9 11 12 11 9 8 7 5 4 2 -0.350506 -0.332964 -0.350946 -0.35075 -0.357651 -0.403571 -0.418606 -0.440484 -0.418606 -0.403571 -0.357651 -0.35075 -0.350947 -0.332965 -0.350505 
3.7 -5.58869 0.826242 2 4 5 7 8 10 12 13 12 10 8 7 5 4 2 -0.34943 -0.336638 -0.350354 -0.351418 -0.360191 -0.407874 -0.420275 -0.436328 -0.420275 -0.407874 -0.360191 -0.351418 -0.350355 -0.336638 -0.34943 
3.8 -5.60769 0.841092 2 4 6 8 8 10 13 13 13 10 8 8 6 4 2 -0.348365 -0.341175 -0.349212 -0.352328 -0.363071 -0.411914 -0.421547 -0.432461 -0.421547 -0.411914 -0.363071 -0.352328 -0.349212 -0.341175 -0.348365 
3.9 -5.62792 0.856383 2 4 6 8 8 10 13 14 13 10 8 8 6 4 2 -0.347926 -0.345562 -0.348201 -0.353468 -0.366259 -0.415626 -0.42244 -0.428957 -0.42244 -0.415626 -0.366259 -0.353469 -0.348201 -0.345563 -0.347926 
4 -5.6486 0.87228 2 4 7 8 9 11 14 15 14 11 9 8 7 4 2 -0.34874 -0.348546 -0.347572 -0.354855 -0.369712 -0.418959 -0.422982 -0.425866 -0.422982 -0.418958 -0.369712 -0.354855 -0.347573 -0.348547 -0.34874 
4.1 -5.66877 0.888847 2 4 7 8 9 12 15 15 15 12 9 8 7 4 2 -0.351027 -0.349489 -0.347293 -0.356507 -0.37338 -0.421868 -0.423211 -0.423218 -0.423211 -0.421868 -0.37338 -0.356507 -0.347294 -0.349489 -0.351027 
4.2 -5.68885 0.906065 2 4 8 8 10 13 15 16 15 13 10 8 8 4 2 -0.35465 -0.348874 -0.347251 -0.358434 -0.377205 -0.424324 -0.423172 -0.421025 -0.423172 -0.424324 -0.377205 -0.358434 -0.347252 -0.348875 -0.354651 
4.3 -5.70957 0.923861 2 4 8 8 10 13 16 17 16 13 10 8 8 4 2 -0.359151 -0.347633 -0.347377 -0.360629 -0.381128 -0.42631 -0.422915 -0.41928 -0.422915 -0.42631 -0.381128 -0.360629 -0.347378 -0.347633 -0.359151 
4.4 -5.72994 0.94215 2 4 8 9 11 14 17 17 17 14 11 9 8 4 2 -0.363432 -0.346421 -0.347658 -0.363077 -0.385085 -0.427821 -0.42249 -0.417965 -0.422491 -0.427821 -0.385086 -0.363077 -0.347659 -0.346421 -0.363433 
4.5 -5.74706 0.96086 2 4 8 9 11 15 17 18 17 15 11 9 8 4 2 -0.36584 -0.34547 -0.348111 -0.365755 -0.389014 -0.428865 -0.421949 -0.417049 -0.421949 -0.428865 -0.389014 -0.365755 -0.348111 -0.34547 -0.365841 
4.6 -5.75857 0.979956 2 4 8 10 12 15 18 19 18 15 12 10 8 4 2 -0.365273 -0.344728 -0.348752 -0.368633 -0.392852 -0.429462 -0.421338 -0.416494 -0.421338 -0.429462 -0.392852 -0.368633 -0.348753 -0.344728 -0.365274 
4.7 -5.76488 0.999443 2 4 8 10 13 17 19 20 19 17 13 10 8 4 2 -0.362092 -0.344072 -0.34959 -0.371678 -0.39654 -0.429642 -0.4207 -0.416256 -0.4207 -0.429642 -0.396541 -0.371678 -0.34959 -0.344073 -0.362092 
4.8 -5.7679 1.01935 2 4 8 10 13 17 19 21 19 17 13 10 8 4 2 -0.357359 -0.343434 -0.350619 -0.37485 -0.400026 -0.429444 -0.420071 -0.41629 -0.420071 -0.429444 -0.400027 -0.37485 -0.350619 -0.343434 -0.35736 
4.9 -5.76922 1.03972 2 4 8 11 14 18 21 22 21 18 14 11 8 4 2 -0.351936 -0.342807 -0.351827 -0.378108 -0.403263 -0.428915 -0.419481 -0.416552 -0.419481 -0.428915 -0.403263 -0.378107 -0.351827 -0.342807 -0.351936 
5 -5.76978 1.06055 2 4 8 12 15 19 22 23 22 19 15 12 8 4 2 -0.346305 -0.342216 -0.353197 -0.381405 -0.406209 -0.428107 -0.418951 -0.416995 -0.418951 -0.428107 -0.406209 -0.381404 -0.353198 -0.342216 -0.346306 
5.1 -5.77 1.08184 2 4 8 13 17 19 23 25 23 20 17 13 8 4 2 -0.340701 -0.341698 -0.354713 -0.384691 -0.408833 -0.427075 -0.418498 -0.417579 -0.418498 -0.427075 -0.408833 -0.384691 -0.354714 -0.341698 -0.340702 
5.2 -5.77009 1.10349 2 4 8 13 17 21 24 26 24 21 17 13 8 4 2 -0.335231 -0.341286 -0.356357 -0.387918 -0.411112 -0.425877 -0.418129 -0.418267 -0.418129 -0.425877 -0.411112 -0.387917 -0.356358 -0.341286 -0.335232 
5.3 -5.77012 1.12539 2 4 8 14 18 21 26 26 25 21 18 14 8 4 2 -0.329951 -0.341006 -0.358113 -0.391032 -0.413032 -0.424567 -0.417847 -0.419024 -0.417847 -0.424567 -0.413033 -0.391031 -0.358114 -0.341006 -0.329952 
5.4 -5.77013 1.14739 2 4 8 15 18 23 26 28 26 23 18 15 8 4 2 -0.324895 -0.340872 -0.359968 -0.393983 -0.414589 -0.4232 -0.417647 -0.419822 -0.417647 -0.423201 -0.41459 -0.393982 -0.359969 -0.340872 -0.324896 
5.5 -5.77014 1.16934 2 4 8 15 19 23 28 29 28 23 19 15 8 4 2 -0.320094 -0.340889 -0.36191 -0.396722 -0.415787 -0.421825 -0.417525 -0.420635 -0.417525 -0.421825 -0.415787 -0.39672 -0.361911 -0.340888 -0.320095 
5.6 -5.77014 1.19111 2 4 8 16 20 25 29 31 28 25 20 16 8 4 2 -0.315581 -0.341046 -0.363929 -0.399201 -0.416637 -0.420485 -0.41747 -0.421442 -0.41747 -0.420485 -0.416637 -0.3992 -0.36393 -0.341046 -0.315582 
5.7 -5.77014 1.2126 2 4 8 16 21 27 31 32 31 26 21 16 8 4 2 -0.311389 -0.341327 -0.366016 -0.401381 -0.417159 -0.419215 -0.417472 -0.422225 -0.417471 -0.419216 -0.417159 -0.401379 -0.366017 -0.341326 -0.31139 
5.8 -5.77014 1.23379 2 4 8 16 22 27 32 34 32 27 22 16 8 4 2 -0.307557 -0.341699 -0.368163 -0.403225 -0.417377 -0.418046 -0.417518 -0.422969 -0.417518 -0.418046 -0.417377 -0.403223 -0.368165 -0.341699 -0.307558 
5.9 -5.77014 1.25469 2 4 8 16 23 29 34 35 34 29 23 16 8 4 2 -0.304128 -0.342127 -0.370361 -0.404708 -0.417321 -0.416997 -0.4176 -0.423659 -0.417599 -0.416997 -0.417322 -0.404706 -0.370363 -0.342127 -0.304129 
6 -5.77014 1.27536 2 4 8 16 24 30 35 38 35 30 24 16 8 4 2 -0.301143 -0.342565 -0.372601 -0.405809 -0.417023 -0.416082 -0.417706 -0.424283 -0.417705 -0.416082 -0.417024 -0.405807 -0.372603 -0.342565 -0.301144 
6.1 -5.77014 1.29589 2 4 8 16 26 32 37 40 37 32 25 16 8 4 2 -0.298648 -0.342963 -0.37487 -0.406523 -0.416516 -0.415306 -0.417828 -0.424832 -0.417828 -0.415307 -0.416516 -0.40652 -0.374872 -0.342962 -0.298649 
6.2 -5.77014 1.31635 2 4 8 16 26 33 40 40 40 33 26 16 8 4 2 -0.296687 -0.343267 -0.377156 -0.406849 -0.415833 -0.41467 -0.417961 -0.425295 -0.417961 -0.41467 -0.415834 -0.406847 -0.377158 -0.343267 -0.296688 
6.3 -5.77014 1.3368 2 4 8 16 27 35 41 43 42 35 27 16 8 4 2 -0.295303 -0.343423 -0.37944 -0.406802 -0.415005 -0.414165 -0.4181 -0.425664 -0.418099 -0.414165 -0.415007 -0.406799 -0.379442 -0.343423 -0.295304 
6.4 -5.77014 1.35727 2 4 8 16 27 37 44 45 44 38 27 16 8 4 2 -0.294537 -0.343376 -0.381703 -0.406403 -0.414064 -0.413781 -0.418241 -0.425931 -0.41824 -0.413781 -0.414065 -0.4064 -0.381705 -0.343376 -0.294538 
6.5 -5.77014 1.37775 2 4 8 16 27 39 44 47 44 39 27 16 8 4 2 -0.294426 -0.343074 -0.383923 -0.405683 -0.413033 -0.413503 -0.418381 -0.426091 -0.418381 -0.413503 -0.413035 -0.40568 -0.383925 -0.343074 -0.294426 
