time energy SvN bondDim localEnergy 
0 -4.73424 0.0309261 2 4 4 4 4 4 4 4 4 4 4 4 4 4 2 -0.322884 -0.314025 -0.314599 -0.314579 -0.31458 -0.31458 -0.31458 -0.31458 -0.31458 -0.31458 -0.31458 -0.314579 -0.314599 -0.314025 -0.322884 
0.1 -4.73424 0.0309266 2 4 4 4 4 4 4 4 4 4 4 4 4 4 2 -0.322885 -0.314025 -0.3146 -0.31458 -0.314581 -0.314581 -0.314581 -0.314581 -0.314581 -0.314581 -0.314581 -0.31458 -0.3146 -0.314025 -0.322884 
0.2 -4.73427 0.0309279 2 4 4 4 4 4 4 4 4 4 4 4 4 4 2 -0.322886 -0.314027 -0.314601 -0.314581 -0.314582 -0.314582 -0.314582 -0.314582 -0.314582 -0.314582 -0.314582 -0.314581 -0.314601 -0.314027 -0.322885 
0.3 -4.73429 0.0309292 2 4 4 4 4 4 4 4 4 4 4 4 4 4 2 -0.322888 -0.314028 -0.314603 -0.314583 -0.314584 -0.314584 -0.314584 -0.314584 -0.314584 -0.314584 -0.314584 -0.314583 -0.314603 -0.314028 -0.322886 
0.4 -4.7343 0.0309301 2 4 4 4 4 4 4 4 4 4 4 4 4 4 2 -0.322889 -0.314029 -0.314604 -0.314584 -0.314585 -0.314585 -0.314585 -0.314585 -0.314585 -0.314585 -0.314585 -0.314584 -0.314604 -0.314029 -0.322887 
0.5 -4.7343 0.0309299 2 4 4 4 4 4 4 4 4 4 4 4 4 4 2 -0.322889 -0.314029 -0.314604 -0.314583 -0.314585 -0.314585 -0.314585 -0.314585 -0.314585 -0.314585 -0.314585 -0.314583 -0.314604 -0.314029 -0.322887 
0.6 -4.73428 0.0309289 2 4 4 4 4 4 4 4 4 4 4 4 4 4 2 -0.322889 -0.314028 -0.314603 -0.314582 -0.314583 -0.314583 -0.314583 -0.314583 -0.314583 -0.314583 -0.314583 -0.314582 -0.314602 -0.314028 -0.322887 
0.7 -4.73426 0.0309276 2 4 4 4 4 4 4 4 4 4 4 4 4 4 2 -0.322887 -0.314026 -0.314601 -0.314581 -0.314582 -0.314582 -0.314582 -0.314582 -0.314582 -0.314582 -0.314582 -0.314581 -0.314601 -0.314026 -0.322886 
0.8 -4.73425 0.0309301 2 4 4 4 4 4 4 4 4 4 4 4 4 4 2 -0.322885 -0.314025 -0.3146 -0.314579 -0.314581 -0.31458 -0.314583 -0.314585 -0.314583 -0.31458 -0.314581 -0.314579 -0.3146 -0.314025 -0.322885 
0.9 -4.73468 0.0311261 2 4 4 4 4 4 4 4 4 4 4 4 4 4 2 -0.322884 -0.314025 -0.314599 -0.314579 -0.31458 -0.31457 -0.314692 -0.314822 -0.314692 -0.31457 -0.31458 -0.314579 -0.314599 -0.314025 -0.322884 
1 -4.74278 0.0367867 2 4 4 4 4 4 4 4 4 4 4 4 4 4 2 -0.322884 -0.314026 -0.3146 -0.31458 -0.314582 -0.314286 -0.317094 -0.318671 -0.317095 -0.314286 -0.314582 -0.31458 -0.3146 -0.314026 -0.322884 
1.1 -4.7549 0.0563949 2 4 4 4 4 4 4 4 4 4 4 4 4 4 2 -0.322885 -0.314027 -0.314602 -0.314581 -0.314587 -0.313261 -0.322803 -0.32141 -0.322803 -0.313261 -0.314587 -0.314581 -0.314602 -0.314027 -0.322885 
1.2 -4.77561 0.0904205 2 4 4 4 4 4 4 4 4 4 4 4 4 4 2 -0.322887 -0.314029 -0.314603 -0.314581 -0.314603 -0.311414 -0.332511 -0.32635 -0.332512 -0.311414 -0.314603 -0.314581 -0.314603 -0.314029 -0.322886 
1.3 -4.80023 0.133955 2 4 4 4 4 4 4 4 4 4 4 4 4 4 2 -0.322888 -0.314029 -0.314604 -0.314579 -0.314532 -0.310198 -0.342221 -0.334133 -0.342222 -0.310198 -0.314532 -0.314579 -0.314604 -0.314029 -0.322887 
1.4 -4.81124 0.183121 2 4 4 4 4 4 4 4 4 4 4 4 4 4 2 -0.322889 -0.314029 -0.314603 -0.314575 -0.313907 -0.311995 -0.341868 -0.343512 -0.341869 -0.311995 -0.313907 -0.314575 -0.314603 -0.314029 -0.322887 
1.5 -4.82907 0.234932 2 4 4 4 4 4 4 4 4 4 4 4 4 4 2 -0.322889 -0.314027 -0.314602 -0.314575 -0.312416 -0.31847 -0.341064 -0.35298 -0.341065 -0.318471 -0.312416 -0.314575 -0.314602 -0.314028 -0.322887 
1.6 -4.85356 0.287111 2 4 4 4 4 4 4 4 4 4 4 4 4 4 2 -0.322888 -0.314026 -0.314598 -0.314561 -0.310645 -0.327541 -0.341381 -0.362286 -0.341382 -0.327542 -0.310645 -0.314561 -0.314598 -0.314026 -0.322886 
1.7 -4.86784 0.338031 2 4 4 4 4 4 4 4 4 4 4 4 4 4 2 -0.322886 -0.314025 -0.314594 -0.314127 -0.311609 -0.328511 -0.342502 -0.371333 -0.342503 -0.328512 -0.311609 -0.314127 -0.314594 -0.314025 -0.322885 
1.8 -4.88335 0.386679 2 4 4 4 4 4 5 5 5 4 4 4 4 4 2 -0.322885 -0.314024 -0.314593 -0.312858 -0.316839 -0.326662 -0.343815 -0.379994 -0.343816 -0.326663 -0.31684 -0.312858 -0.314593 -0.314024 -0.322884 
1.9 -4.90666 0.432601 2 4 4 4 4 5 5 5 5 5 4 4 4 4 2 -0.322884 -0.314024 -0.3146 -0.310946 -0.325629 -0.325955 -0.345232 -0.38812 -0.345233 -0.325956 -0.32563 -0.310946 -0.3146 -0.314024 -0.322884 
2 -4.92778 0.475811 2 4 4 4 4 5 5 6 6 5 4 4 4 4 2 -0.322884 -0.314023 -0.314363 -0.310984 -0.330632 -0.326373 -0.346841 -0.395577 -0.346841 -0.326374 -0.330633 -0.310984 -0.314363 -0.314023 -0.322884 
2.1 -4.94032 0.516654 2 4 4 4 4 5 6 7 6 5 4 4 4 4 2 -0.322886 -0.314022 -0.313421 -0.3144 -0.328298 -0.3273 -0.348708 -0.402254 -0.348708 -0.327301 -0.328299 -0.3144 -0.313421 -0.314022 -0.322885 
2.2 -4.96101 0.555658 2 4 4 4 5 5 7 8 7 5 5 4 4 4 2 -0.322886 -0.314028 -0.311681 -0.322061 -0.326578 -0.328373 -0.350861 -0.408071 -0.350862 -0.328374 -0.326579 -0.322062 -0.311681 -0.314028 -0.322885 
2.3 -4.98571 0.593391 2 4 4 4 5 6 8 8 8 6 5 4 4 4 2 -0.322885 -0.313945 -0.310559 -0.330083 -0.325973 -0.32962 -0.353305 -0.412974 -0.353306 -0.32962 -0.325973 -0.330084 -0.310559 -0.313946 -0.322883 
2.4 -4.99684 0.630338 2 4 4 4 5 7 8 8 8 6 5 4 4 4 2 -0.322882 -0.313309 -0.312386 -0.328304 -0.325956 -0.331082 -0.356029 -0.416939 -0.35603 -0.331083 -0.325957 -0.328305 -0.312386 -0.313309 -0.32288 
2.5 -5.01481 0.666825 2 4 4 5 5 8 8 8 8 8 5 4 4 4 2 -0.322883 -0.311805 -0.318849 -0.326131 -0.325976 -0.332772 -0.359004 -0.41997 -0.359005 -0.332772 -0.325976 -0.326131 -0.318849 -0.311805 -0.322882 
2.6 -5.03951 0.702997 2 4 4 5 6 8 8 8 8 8 6 5 4 4 2 -0.322869 -0.31002 -0.327859 -0.325052 -0.326036 -0.334682 -0.362188 -0.4221 -0.362189 -0.334682 -0.326036 -0.325053 -0.327859 -0.31002 -0.322868 
2.7 -5.05386 0.738832 2 4 4 5 6 8 8 8 8 8 6 5 4 4 2 -0.322431 -0.310964 -0.328593 -0.324714 -0.326204 -0.336803 -0.365526 -0.423389 -0.365526 -0.336803 -0.326205 -0.324715 -0.328594 -0.310965 -0.322431 
2.8 -5.06936 0.774198 2 4 5 5 7 8 9 9 9 8 7 5 5 4 2 -0.32115 -0.316164 -0.326318 -0.324489 -0.326524 -0.33912 -0.368952 -0.423917 -0.368953 -0.339121 -0.326525 -0.324489 -0.326319 -0.316164 -0.32115 
2.9 -5.09263 0.808921 2 4 5 6 8 8 9 10 9 8 8 6 5 4 2 -0.319225 -0.324906 -0.325003 -0.324252 -0.32702 -0.341617 -0.3724 -0.423779 -0.3724 -0.341617 -0.327022 -0.324253 -0.325004 -0.324906 -0.319225 
3 -5.11409 0.842856 2 4 5 6 8 8 10 10 10 8 8 6 5 4 2 -0.319203 -0.329839 -0.324621 -0.324059 -0.327711 -0.34427 -0.375796 -0.423086 -0.375797 -0.34427 -0.327712 -0.32406 -0.324621 -0.32984 -0.319203 
3.1 -5.12776 0.875933 2 4 5 7 8 9 11 11 11 9 8 7 5 4 2 -0.322267 -0.327387 -0.32455 -0.323958 -0.32861 -0.347053 -0.379075 -0.421952 -0.379075 -0.347053 -0.328611 -0.323959 -0.32455 -0.327388 -0.322267 
3.2 -5.15094 0.908182 2 4 6 8 8 10 12 12 12 10 8 8 6 4 2 -0.329557 -0.325433 -0.324425 -0.32397 -0.329726 -0.349939 -0.382172 -0.420493 -0.382173 -0.349939 -0.329727 -0.323971 -0.324425 -0.325434 -0.329557 
3.3 -5.17696 0.939733 2 4 6 8 8 10 13 13 13 10 8 8 6 4 2 -0.337263 -0.324436 -0.324272 -0.324106 -0.331061 -0.352897 -0.385035 -0.418819 -0.385036 -0.352897 -0.331062 -0.324107 -0.324272 -0.324438 -0.337263 
3.4 -5.18013 0.970785 2 4 7 8 9 11 13 14 13 11 9 8 7 4 2 -0.333094 -0.323815 -0.324132 -0.324375 -0.332614 -0.355896 -0.38762 -0.417034 -0.387621 -0.355895 -0.332615 -0.324377 -0.324131 -0.323816 -0.333094 
3.5 -5.18022 1.00156 2 4 8 8 10 12 14 14 14 12 10 8 8 4 2 -0.327541 -0.322984 -0.32401 -0.324783 -0.334376 -0.358903 -0.389897 -0.415227 -0.389898 -0.358902 -0.334377 -0.324785 -0.324009 -0.322985 -0.327541 
3.6 -5.18022 1.03227 2 4 8 8 10 13 15 15 15 13 10 8 8 4 2 -0.322128 -0.321941 -0.323899 -0.325332 -0.336337 -0.361886 -0.391848 -0.413473 -0.391848 -0.361886 -0.336337 -0.325335 -0.323897 -0.321943 -0.322129 
3.7 -5.18022 1.06307 2 4 8 9 11 14 16 16 16 14 11 9 8 4 2 -0.316875 -0.320748 -0.323787 -0.326022 -0.338478 -0.364815 -0.393468 -0.411829 -0.393468 -0.364815 -0.338479 -0.326025 -0.323786 -0.320749 -0.316875 
3.8 -5.18022 1.09405 2 4 8 10 12 15 17 17 17 15 12 10 8 4 2 -0.311756 -0.319465 -0.323664 -0.326849 -0.340782 -0.367658 -0.394765 -0.410338 -0.394764 -0.367658 -0.340782 -0.326852 -0.323662 -0.319467 -0.311757 
3.9 -5.18022 1.1252 2 4 8 10 13 15 17 18 17 15 13 10 8 4 2 -0.306749 -0.318154 -0.323517 -0.327809 -0.343223 -0.370388 -0.395757 -0.409023 -0.395756 -0.370389 -0.343223 -0.327812 -0.323515 -0.318155 -0.306749 
4 -5.18022 1.1565 2 4 8 11 14 17 18 19 18 17 14 11 8 4 2 -0.301833 -0.316867 -0.32334 -0.328894 -0.345777 -0.372979 -0.396472 -0.407892 -0.396472 -0.37298 -0.345777 -0.328897 -0.323338 -0.316868 -0.301834 
4.1 -5.18022 1.18788 2 4 8 12 15 18 19 19 19 18 15 12 8 4 2 -0.296995 -0.31565 -0.323128 -0.330097 -0.348414 -0.375408 -0.396946 -0.40694 -0.396945 -0.375409 -0.348413 -0.330101 -0.323126 -0.315651 -0.296996 
4.2 -5.18022 1.21928 2 4 8 13 16 18 20 21 20 18 16 13 8 4 2 -0.292226 -0.314538 -0.322881 -0.33141 -0.351102 -0.377657 -0.397218 -0.406151 -0.397217 -0.377658 -0.351102 -0.331413 -0.322879 -0.314538 -0.292228 
4.3 -5.18022 1.25065 2 4 8 14 17 19 21 22 21 19 17 14 8 4 2 -0.287524 -0.313554 -0.322605 -0.33282 -0.353811 -0.379712 -0.39733 -0.405503 -0.397329 -0.379713 -0.35381 -0.332824 -0.322604 -0.313554 -0.287526 
4.4 -5.18022 1.282 2 4 8 14 18 20 22 24 22 20 18 14 8 4 2 -0.282893 -0.312708 -0.322315 -0.334317 -0.356506 -0.381563 -0.397324 -0.404965 -0.397323 -0.381565 -0.356505 -0.334321 -0.322314 -0.312707 -0.282895 
4.5 -5.18022 1.31335 2 4 8 15 19 21 24 24 24 21 19 15 8 4 2 -0.278341 -0.311997 -0.322029 -0.335886 -0.359153 -0.383207 -0.397241 -0.404508 -0.397239 -0.383209 -0.359152 -0.335889 -0.322029 -0.311996 -0.278344 
4.6 -5.18022 1.34475 2 4 8 16 20 23 25 26 25 22 20 16 8 4 2 -0.273886 -0.31141 -0.321773 -0.33751 -0.36172 -0.384644 -0.397115 -0.404102 -0.397113 -0.384646 -0.361719 -0.337512 -0.321773 -0.311407 -0.273888 
4.7 -5.18022 1.37625 2 4 8 16 21 24 26 27 26 24 21 16 8 4 2 -0.269545 -0.310923 -0.321575 -0.339171 -0.364176 -0.385882 -0.396976 -0.40372 -0.396974 -0.385884 -0.364175 -0.339173 -0.321577 -0.31092 -0.269548 
4.8 -5.18022 1.40786 2 4 8 16 22 26 28 28 28 26 22 16 8 4 2 -0.265344 -0.310507 -0.321468 -0.34085 -0.366491 -0.38693 -0.396849 -0.403339 -0.396847 -0.386932 -0.36649 -0.340852 -0.321471 -0.310503 -0.265347 
