time energy SvN bondDim localEnergy 
0 -5.06553 0.0526194 2 4 5 5 5 5 5 5 5 5 5 5 5 4 2 -0.352039 -0.334061 -0.335845 -0.335729 -0.33574 -0.335739 -0.33574 -0.335742 -0.33574 -0.335739 -0.33574 -0.335729 -0.335845 -0.334061 -0.352039 
0.1 -5.06553 0.0526202 2 4 5 5 5 5 5 5 5 5 5 5 5 4 2 -0.352039 -0.334061 -0.335845 -0.335729 -0.33574 -0.335739 -0.335741 -0.335743 -0.335741 -0.335739 -0.33574 -0.335729 -0.335845 -0.334061 -0.352039 
0.2 -5.06554 0.0526242 2 4 5 5 5 5 5 5 5 5 5 5 5 4 2 -0.352039 -0.334061 -0.335845 -0.335729 -0.33574 -0.335739 -0.335742 -0.335746 -0.335742 -0.335739 -0.33574 -0.335729 -0.335845 -0.334061 -0.352039 
0.3 -5.06557 0.0526371 2 4 5 5 5 5 5 5 5 5 5 5 5 4 2 -0.35204 -0.334062 -0.335845 -0.33573 -0.33574 -0.335738 -0.335748 -0.335759 -0.335748 -0.335738 -0.33574 -0.33573 -0.335845 -0.334062 -0.352039 
0.4 -5.06563 0.0526741 2 4 5 5 5 5 5 5 5 5 5 5 5 4 2 -0.35204 -0.334062 -0.335846 -0.33573 -0.335741 -0.335737 -0.335764 -0.335795 -0.335764 -0.335737 -0.335741 -0.33573 -0.335846 -0.334062 -0.35204 
0.5 -5.06581 0.0527755 2 4 5 5 5 5 5 5 5 5 5 5 5 4 2 -0.352041 -0.334062 -0.335846 -0.33573 -0.335741 -0.335732 -0.335808 -0.335892 -0.335808 -0.335732 -0.335741 -0.33573 -0.335846 -0.334062 -0.35204 
0.6 -5.06628 0.0530489 2 4 5 5 5 5 5 5 5 5 5 5 5 4 2 -0.352041 -0.334062 -0.335846 -0.33573 -0.335741 -0.335717 -0.335925 -0.336154 -0.335925 -0.335717 -0.335741 -0.33573 -0.335846 -0.334062 -0.35204 
0.7 -5.06749 0.0537769 2 4 5 5 5 5 5 5 5 5 5 5 5 4 2 -0.352041 -0.334062 -0.335846 -0.33573 -0.335741 -0.335678 -0.336231 -0.336834 -0.336232 -0.335678 -0.335741 -0.33573 -0.335846 -0.334062 -0.35204 
0.8 -5.07046 0.0556576 2 4 5 5 5 5 5 5 5 5 5 5 5 4 2 -0.352041 -0.334062 -0.335846 -0.33573 -0.33574 -0.335579 -0.336993 -0.338485 -0.336993 -0.335579 -0.33574 -0.33573 -0.335846 -0.334062 -0.35204 
0.9 -5.0768 0.060191 2 4 5 5 5 5 5 5 5 5 5 5 5 4 2 -0.35204 -0.334061 -0.335845 -0.335729 -0.33574 -0.335341 -0.338676 -0.341939 -0.338676 -0.335341 -0.33574 -0.335729 -0.335845 -0.334062 -0.35204 
1 -5.08753 0.069807 2 4 5 5 5 5 5 5 5 5 5 5 5 4 2 -0.35204 -0.334061 -0.335845 -0.335728 -0.335738 -0.334849 -0.341746 -0.347517 -0.341746 -0.334849 -0.335738 -0.335728 -0.335845 -0.334061 -0.35204 
1.1 -5.10174 0.0869434 2 4 5 5 5 5 4 4 4 5 5 5 5 4 2 -0.35204 -0.334061 -0.335845 -0.335726 -0.33573 -0.334026 -0.346285 -0.354312 -0.346285 -0.334026 -0.33573 -0.335726 -0.335845 -0.334061 -0.352039 
1.2 -5.11815 0.112543 2 4 5 5 5 5 4 4 4 5 5 5 5 4 2 -0.352039 -0.334061 -0.335845 -0.335723 -0.335701 -0.332981 -0.351982 -0.361484 -0.351982 -0.332981 -0.335701 -0.335723 -0.335845 -0.334061 -0.352039 
1.3 -5.1363 0.145681 2 4 5 5 5 5 4 4 4 5 5 5 5 4 2 -0.352039 -0.334061 -0.335845 -0.335716 -0.335607 -0.332151 -0.358139 -0.369185 -0.35814 -0.332151 -0.335607 -0.335716 -0.335845 -0.334061 -0.352039 
1.4 -5.15551 0.184407 2 4 5 5 5 5 4 4 4 5 5 5 5 4 2 -0.352039 -0.334061 -0.335845 -0.335706 -0.335355 -0.332237 -0.363612 -0.377801 -0.363612 -0.332237 -0.335355 -0.335706 -0.335845 -0.334061 -0.352039 
1.5 -5.17442 0.226577 2 4 5 5 5 5 4 4 4 5 5 5 5 4 2 -0.352039 -0.334062 -0.335845 -0.335688 -0.334836 -0.333789 -0.367311 -0.387277 -0.367311 -0.333789 -0.334836 -0.335688 -0.335845 -0.334062 -0.352039 
1.6 -5.19253 0.270254 2 4 5 5 5 5 4 4 4 5 5 5 5 4 2 -0.35204 -0.334062 -0.335843 -0.335654 -0.33403 -0.336897 -0.369153 -0.39717 -0.369153 -0.336897 -0.33403 -0.335654 -0.335843 -0.334062 -0.352039 
1.7 -5.21086 0.313861 2 4 5 5 5 5 5 4 5 5 5 5 5 4 2 -0.35204 -0.334062 -0.33584 -0.33558 -0.333165 -0.34125 -0.369998 -0.406987 -0.369998 -0.341251 -0.333165 -0.33558 -0.33584 -0.334062 -0.352039 
1.8 -5.23019 0.356233 2 4 5 5 5 5 5 5 5 5 5 5 5 4 2 -0.35204 -0.334062 -0.335834 -0.335402 -0.332793 -0.346041 -0.370736 -0.416377 -0.370736 -0.346042 -0.332793 -0.335402 -0.335834 -0.334062 -0.35204 
1.9 -5.24989 0.39662 2 4 5 5 5 5 5 5 5 5 5 5 5 4 2 -0.352041 -0.334061 -0.335822 -0.335013 -0.333573 -0.350056 -0.371823 -0.425116 -0.371824 -0.350057 -0.333573 -0.335013 -0.335822 -0.334061 -0.35204 
2 -5.26881 0.434658 2 4 5 5 5 5 5 6 5 5 5 5 5 4 2 -0.352041 -0.33406 -0.3358 -0.334326 -0.335824 -0.352489 -0.373339 -0.433054 -0.373339 -0.35249 -0.335824 -0.334326 -0.3358 -0.33406 -0.35204 
2.1 -5.28722 0.470302 2 4 5 5 5 5 6 6 6 5 5 5 5 4 2 -0.352041 -0.334057 -0.335754 -0.333417 -0.339427 -0.353664 -0.37521 -0.440075 -0.375211 -0.353665 -0.339427 -0.333417 -0.335754 -0.334057 -0.35204 
2.2 -5.30625 0.503745 2 4 5 5 5 5 6 7 6 5 5 5 5 4 2 -0.35204 -0.334051 -0.335644 -0.332665 -0.343838 -0.354474 -0.377372 -0.446081 -0.377372 -0.354475 -0.343838 -0.332665 -0.335644 -0.334051 -0.352039 
2.3 -5.32611 0.535311 2 4 5 5 5 6 7 8 7 6 5 5 5 4 2 -0.35204 -0.334042 -0.335385 -0.332724 -0.347981 -0.355584 -0.379798 -0.451004 -0.379798 -0.355584 -0.347981 -0.332724 -0.335385 -0.334042 -0.352039 
2.4 -5.34567 0.565361 2 4 5 5 5 6 7 8 7 6 5 5 5 4 2 -0.352039 -0.334027 -0.334865 -0.334142 -0.350654 -0.357229 -0.382477 -0.454805 -0.382477 -0.35723 -0.350654 -0.334142 -0.334865 -0.334027 -0.352038 
2.5 -5.3643 0.594205 2 4 5 5 5 7 8 8 8 7 5 5 5 4 2 -0.352036 -0.333997 -0.334049 -0.337027 -0.351533 -0.359374 -0.38539 -0.457483 -0.38539 -0.359374 -0.351534 -0.337028 -0.334049 -0.333997 -0.352036 
2.6 -5.38293 0.622051 2 4 5 5 5 7 8 8 8 7 5 5 5 4 2 -0.352033 -0.333931 -0.333138 -0.341087 -0.351327 -0.361917 -0.3885 -0.459067 -0.3885 -0.361917 -0.351327 -0.341088 -0.333138 -0.333931 -0.352033 
2.7 -5.40249 0.648983 2 4 5 5 5 8 8 8 8 8 6 5 5 4 2 -0.352026 -0.333769 -0.332657 -0.345538 -0.350898 -0.364791 -0.391756 -0.459617 -0.391756 -0.364791 -0.350898 -0.345538 -0.332658 -0.333769 -0.352026 
2.8 -5.42245 0.674977 2 4 5 5 6 8 8 8 8 8 6 5 5 4 2 -0.352014 -0.333406 -0.333273 -0.34914 -0.350727 -0.367962 -0.395095 -0.459219 -0.395095 -0.367963 -0.350727 -0.34914 -0.333273 -0.333406 -0.352014 
2.9 -5.44163 0.699935 2 4 5 5 6 8 8 8 8 8 6 5 5 4 2 -0.351994 -0.33275 -0.335341 -0.350962 -0.350922 -0.371409 -0.398447 -0.457979 -0.398447 -0.371409 -0.350923 -0.350963 -0.335341 -0.33275 -0.351994 
3 -5.46016 0.723742 2 4 5 5 7 8 8 9 8 8 7 5 5 4 2 -0.351952 -0.331855 -0.338776 -0.351211 -0.351432 -0.375099 -0.401743 -0.456023 -0.401743 -0.375099 -0.351432 -0.351211 -0.338776 -0.331855 -0.351951 
3.1 -5.47921 0.746316 2 4 5 5 7 8 9 9 9 8 7 5 5 4 2 -0.35185 -0.331065 -0.343077 -0.350762 -0.352207 -0.378988 -0.404912 -0.453482 -0.404912 -0.378989 -0.352207 -0.350763 -0.343078 -0.331065 -0.351849 
3.2 -5.49912 0.767653 2 4 5 6 8 8 9 10 9 8 8 6 5 4 2 -0.351608 -0.331018 -0.347207 -0.350322 -0.353243 -0.383023 -0.407891 -0.450497 -0.407891 -0.383023 -0.353243 -0.350323 -0.347207 -0.331018 -0.351607 
3.3 -5.51885 0.787848 2 4 5 6 8 8 10 10 10 8 8 6 5 4 2 -0.351113 -0.332289 -0.349919 -0.350173 -0.354561 -0.387141 -0.410626 -0.447204 -0.410626 -0.387141 -0.354562 -0.350173 -0.349919 -0.332289 -0.351112 
3.4 -5.53764 0.807095 2 4 5 7 8 9 10 11 10 9 8 7 5 4 2 -0.350321 -0.335025 -0.350759 -0.350312 -0.356184 -0.391278 -0.41307 -0.443736 -0.41307 -0.391278 -0.356184 -0.350313 -0.350759 -0.335025 -0.35032 
3.5 -5.55638 0.825665 2 4 5 7 8 9 11 12 11 9 8 7 5 4 2 -0.349417 -0.338961 -0.350354 -0.350668 -0.35812 -0.39537 -0.415193 -0.440215 -0.415193 -0.39537 -0.35812 -0.350668 -0.350354 -0.338962 -0.349416 
3.6 -5.57621 0.843869 2 4 6 8 8 10 12 13 12 10 8 8 6 4 2 -0.348912 -0.343353 -0.349572 -0.351204 -0.360365 -0.399351 -0.416973 -0.43675 -0.416974 -0.399351 -0.360365 -0.351204 -0.349572 -0.343353 -0.348911 
3.7 -5.59694 0.862009 2 4 6 8 8 10 13 13 13 10 8 8 6 4 2 -0.349469 -0.346968 -0.348919 -0.351925 -0.362902 -0.403161 -0.418406 -0.433434 -0.418406 -0.403161 -0.362903 -0.351926 -0.348919 -0.346968 -0.349469 
3.8 -5.61742 0.880339 2 4 7 8 9 11 13 14 13 11 9 8 7 4 2 -0.351436 -0.348785 -0.348516 -0.352854 -0.365707 -0.406744 -0.419497 -0.43034 -0.419497 -0.406743 -0.365707 -0.352855 -0.348516 -0.348785 -0.351435 
3.9 -5.63749 0.899035 2 4 7 8 9 11 14 15 14 12 9 8 7 4 2 -0.354733 -0.348877 -0.348304 -0.35401 -0.368744 -0.41005 -0.420263 -0.427527 -0.420263 -0.41005 -0.368744 -0.354011 -0.348304 -0.348877 -0.354733 
4 -5.65773 0.918188 2 4 8 8 10 13 15 16 15 13 10 8 8 4 2 -0.358917 -0.348067 -0.348217 -0.355401 -0.371975 -0.41304 -0.420732 -0.425031 -0.420733 -0.41304 -0.371975 -0.355402 -0.348217 -0.348067 -0.358917 
4.1 -5.67723 0.937809 2 4 8 8 10 13 16 16 16 13 10 8 8 4 2 -0.362879 -0.347063 -0.348234 -0.357026 -0.375355 -0.41568 -0.420939 -0.422875 -0.420939 -0.41568 -0.375354 -0.357027 -0.348233 -0.347063 -0.36288 
4.2 -5.69318 0.957856 2 4 8 9 11 14 17 17 17 14 11 9 8 4 2 -0.364957 -0.346152 -0.348364 -0.358878 -0.378834 -0.417948 -0.420922 -0.421066 -0.420923 -0.417948 -0.378833 -0.358879 -0.348363 -0.346152 -0.364958 
4.3 -5.70358 0.978266 2 4 8 9 11 15 17 18 17 15 12 9 8 4 2 -0.364184 -0.345325 -0.348621 -0.360944 -0.382361 -0.419832 -0.420726 -0.419596 -0.420727 -0.419832 -0.38236 -0.360945 -0.348621 -0.345325 -0.364184 
4.4 -5.70916 0.998982 2 4 8 10 12 15 18 18 18 15 12 10 8 4 2 -0.361032 -0.3445 -0.349011 -0.363205 -0.385884 -0.42133 -0.420394 -0.418449 -0.420394 -0.42133 -0.385883 -0.363207 -0.349011 -0.3445 -0.361032 
4.5 -5.71179 1.01997 2 4 8 10 13 17 18 19 18 17 13 10 8 4 2 -0.356519 -0.343635 -0.349531 -0.365641 -0.389352 -0.422447 -0.419968 -0.417599 -0.419968 -0.422448 -0.389351 -0.365643 -0.349531 -0.343635 -0.35652 
4.6 -5.71293 1.04125 2 4 8 11 14 17 19 21 19 17 14 11 8 4 2 -0.351416 -0.34274 -0.350173 -0.368224 -0.392715 -0.423202 -0.419488 -0.417015 -0.419488 -0.423202 -0.392714 -0.368226 -0.350172 -0.34274 -0.351417 
4.7 -5.71341 1.06284 2 4 8 12 15 18 21 22 21 18 15 12 8 4 2 -0.34614 -0.341851 -0.350924 -0.370924 -0.395927 -0.423617 -0.418989 -0.416665 -0.418989 -0.423618 -0.395925 -0.370926 -0.350924 -0.341851 -0.34614 
4.8 -5.7136 1.08479 2 4 8 12 15 19 21 23 21 19 15 12 8 4 2 -0.340883 -0.34101 -0.351776 -0.373706 -0.398945 -0.423724 -0.418501 -0.416511 -0.4185 -0.423725 -0.398943 -0.373708 -0.351776 -0.34101 -0.340884 
4.9 -5.71368 1.10712 2 4 8 13 17 20 22 24 22 20 17 13 8 4 2 -0.335733 -0.340255 -0.352719 -0.376533 -0.401732 -0.423559 -0.418046 -0.416521 -0.418045 -0.42356 -0.40173 -0.376535 -0.352719 -0.340255 -0.335733 
5 -5.71371 1.12984 2 4 8 14 18 21 24 25 23 21 18 14 8 4 2 -0.330727 -0.33962 -0.353746 -0.379365 -0.404257 -0.423163 -0.417643 -0.416663 -0.417642 -0.423164 -0.404256 -0.379367 -0.353746 -0.33962 -0.330728 
5.1 -5.71372 1.1529 2 4 8 14 18 22 25 26 25 21 18 14 8 4 2 -0.32589 -0.339124 -0.354855 -0.38216 -0.406496 -0.422578 -0.417301 -0.416906 -0.4173 -0.42258 -0.406495 -0.382161 -0.354855 -0.339124 -0.325891 
5.2 -5.71372 1.17621 2 4 8 15 19 23 26 28 26 23 19 15 8 4 2 -0.321243 -0.338779 -0.356045 -0.384873 -0.408432 -0.421848 -0.417027 -0.417226 -0.417025 -0.42185 -0.40843 -0.384874 -0.356046 -0.338779 -0.321243 
5.3 -5.71372 1.19967 2 4 8 16 19 24 27 28 27 24 20 16 8 4 2 -0.316806 -0.338584 -0.357319 -0.387461 -0.410054 -0.421016 -0.41682 -0.4176 -0.416818 -0.421018 -0.410053 -0.387462 -0.35732 -0.338584 -0.316806 
5.4 -5.71372 1.22313 2 4 8 16 21 26 28 31 28 26 21 16 8 4 2 -0.312606 -0.338528 -0.358681 -0.389882 -0.411361 -0.420121 -0.416676 -0.418011 -0.416674 -0.420123 -0.41136 -0.389882 -0.358682 -0.338528 -0.312606 
5.5 -5.71372 1.2465 2 4 8 16 22 27 31 32 31 27 22 16 8 4 2 -0.308672 -0.338591 -0.360136 -0.392096 -0.412356 -0.4192 -0.416588 -0.418443 -0.416586 -0.419202 -0.412355 -0.392096 -0.360137 -0.338591 -0.308673 
5.6 -5.71372 1.26969 2 4 8 16 22 27 32 34 32 28 22 16 8 4 2 -0.305038 -0.338745 -0.361688 -0.394067 -0.41305 -0.418284 -0.416547 -0.418883 -0.416545 -0.418287 -0.41305 -0.394066 -0.36169 -0.338745 -0.305039 
5.7 -5.71372 1.29267 2 4 8 16 24 29 34 35 34 29 24 16 8 4 2 -0.301739 -0.338954 -0.36334 -0.395764 -0.413459 -0.417399 -0.416544 -0.419322 -0.416541 -0.417402 -0.413459 -0.395763 -0.363342 -0.338955 -0.30174 
5.8 -5.71372 1.31544 2 4 8 16 25 32 35 37 35 32 25 16 8 4 2 -0.298813 -0.33918 -0.365092 -0.397166 -0.413603 -0.416565 -0.416567 -0.41975 -0.416564 -0.416568 -0.413602 -0.397165 -0.365093 -0.339181 -0.298814 
5.9 -5.71372 1.33806 2 4 8 16 26 33 37 39 37 33 26 16 8 4 2 -0.296299 -0.33938 -0.366938 -0.398256 -0.413504 -0.415796 -0.416607 -0.42016 -0.416604 -0.415799 -0.413504 -0.398255 -0.36694 -0.339381 -0.296299 
6 -5.71372 1.36059 2 4 8 16 26 35 40 40 40 35 26 16 8 4 2 -0.294234 -0.339511 -0.36887 -0.399029 -0.413189 -0.4151 -0.416657 -0.420544 -0.416654 -0.415102 -0.413189 -0.399027 -0.368871 -0.339512 -0.294234 
6.1 -5.71372 1.3831 2 4 8 16 27 36 41 43 41 36 27 16 8 4 2 -0.292655 -0.339529 -0.370873 -0.399487 -0.412683 -0.414478 -0.416709 -0.420894 -0.416706 -0.41448 -0.412684 -0.399485 -0.370875 -0.33953 -0.292655 
