time energy SvN bondDim localEnergy 
0 -5.06553 0.0526194 2 4 5 5 5 5 5 5 5 5 5 5 5 4 2 -0.352039 -0.334061 -0.335845 -0.335729 -0.33574 -0.335739 -0.33574 -0.335742 -0.33574 -0.335739 -0.33574 -0.335729 -0.335845 -0.334061 -0.352039 
0.1 -5.06553 0.0526202 2 4 5 5 5 5 5 5 5 5 5 5 5 4 2 -0.352039 -0.334061 -0.335845 -0.335729 -0.33574 -0.335739 -0.335741 -0.335743 -0.335741 -0.335739 -0.33574 -0.335729 -0.335845 -0.334061 -0.352039 
0.2 -5.06554 0.0526242 2 4 5 5 5 5 5 5 5 5 5 5 5 4 2 -0.352039 -0.334061 -0.335845 -0.335729 -0.33574 -0.335739 -0.335742 -0.335746 -0.335742 -0.335739 -0.33574 -0.335729 -0.335845 -0.334061 -0.352039 
0.3 -5.06557 0.0526371 2 4 5 5 5 5 5 5 5 5 5 5 5 4 2 -0.35204 -0.334062 -0.335845 -0.33573 -0.33574 -0.335739 -0.335748 -0.335759 -0.335748 -0.335739 -0.33574 -0.33573 -0.335845 -0.334062 -0.352039 
0.4 -5.06563 0.0526741 2 4 5 5 5 5 5 5 5 5 5 5 5 4 2 -0.35204 -0.334062 -0.335846 -0.33573 -0.335741 -0.335737 -0.335764 -0.335795 -0.335764 -0.335737 -0.335741 -0.33573 -0.335846 -0.334062 -0.35204 
0.5 -5.06581 0.0527755 2 4 5 5 5 5 5 5 5 5 5 5 5 4 2 -0.352041 -0.334062 -0.335846 -0.33573 -0.335741 -0.335732 -0.335808 -0.335892 -0.335808 -0.335732 -0.335741 -0.33573 -0.335846 -0.334062 -0.35204 
0.6 -5.06628 0.0530489 2 4 5 5 5 5 5 5 5 5 5 5 5 4 2 -0.352041 -0.334062 -0.335846 -0.33573 -0.335741 -0.335718 -0.335926 -0.336154 -0.335926 -0.335718 -0.335741 -0.33573 -0.335846 -0.334062 -0.35204 
0.7 -5.0675 0.0537769 2 4 5 5 5 5 5 5 5 5 5 5 5 4 2 -0.352041 -0.334062 -0.335846 -0.33573 -0.335741 -0.335681 -0.336234 -0.336833 -0.336234 -0.335681 -0.335741 -0.33573 -0.335846 -0.334062 -0.35204 
0.8 -5.07049 0.0556575 2 4 5 5 5 5 5 5 5 5 5 5 5 4 2 -0.352041 -0.334062 -0.335846 -0.33573 -0.33574 -0.335586 -0.337 -0.338483 -0.337 -0.335586 -0.33574 -0.33573 -0.335846 -0.334062 -0.35204 
0.9 -5.07687 0.0601908 2 4 5 5 5 5 5 5 5 5 5 5 5 4 2 -0.35204 -0.334061 -0.335845 -0.335729 -0.335738 -0.335362 -0.338694 -0.341933 -0.338694 -0.335362 -0.335738 -0.335729 -0.335845 -0.334062 -0.35204 
1 -5.08769 0.0698066 2 4 5 5 5 5 5 5 5 5 5 5 5 4 2 -0.35204 -0.334061 -0.335845 -0.335728 -0.335733 -0.334906 -0.341784 -0.347502 -0.341784 -0.334906 -0.335733 -0.335728 -0.335845 -0.334061 -0.35204 
1.1 -5.10209 0.0869422 2 4 5 5 5 5 4 4 4 5 5 5 5 4 2 -0.35204 -0.334061 -0.335845 -0.335726 -0.335716 -0.334172 -0.346351 -0.354271 -0.346352 -0.334172 -0.335716 -0.335726 -0.335845 -0.334061 -0.352039 
1.2 -5.11883 0.112539 2 4 5 5 5 5 4 4 4 5 5 5 5 4 2 -0.352039 -0.334061 -0.335845 -0.335722 -0.335666 -0.333342 -0.352055 -0.361367 -0.352056 -0.333342 -0.335666 -0.335722 -0.335845 -0.334061 -0.352039 
1.3 -5.13736 0.145671 2 4 5 5 5 5 4 4 4 5 5 5 5 4 2 -0.352039 -0.334061 -0.335845 -0.335715 -0.335524 -0.332938 -0.358118 -0.368875 -0.358119 -0.332938 -0.335524 -0.335715 -0.335845 -0.334061 -0.352039 
1.4 -5.15671 0.184384 2 4 5 5 5 5 4 4 4 5 5 5 5 4 2 -0.352039 -0.334061 -0.335845 -0.335701 -0.335199 -0.333649 -0.363321 -0.37708 -0.363322 -0.333649 -0.335199 -0.335701 -0.335845 -0.334061 -0.352039 
1.5 -5.17556 0.22653 2 4 5 5 5 5 4 4 4 5 5 5 5 4 2 -0.352039 -0.334062 -0.335844 -0.335673 -0.334627 -0.335856 -0.366746 -0.385871 -0.366747 -0.335856 -0.334627 -0.335673 -0.335844 -0.334062 -0.352039 
1.6 -5.194 0.270181 2 4 5 5 5 5 4 4 4 5 5 5 5 4 2 -0.35204 -0.334062 -0.335842 -0.335612 -0.333929 -0.339471 -0.368616 -0.394861 -0.368617 -0.339471 -0.333929 -0.335612 -0.335842 -0.334062 -0.352039 
1.7 -5.2131 0.313781 2 4 5 5 5 5 5 5 5 5 5 5 5 4 2 -0.35204 -0.334062 -0.335836 -0.335468 -0.333552 -0.343936 -0.369814 -0.403679 -0.369814 -0.343937 -0.333552 -0.335468 -0.335836 -0.334062 -0.352039 
1.8 -5.23288 0.356204 2 4 5 5 5 5 5 5 5 5 5 5 5 4 2 -0.35204 -0.334061 -0.335825 -0.335152 -0.334155 -0.348147 -0.371025 -0.41207 -0.371025 -0.348147 -0.334155 -0.335152 -0.335825 -0.334061 -0.35204 
1.9 -5.25225 0.396743 2 4 5 5 5 5 5 5 5 5 5 5 5 4 2 -0.352041 -0.33406 -0.335802 -0.334589 -0.336163 -0.351028 -0.372506 -0.41987 -0.372506 -0.351028 -0.336163 -0.334589 -0.335802 -0.33406 -0.35204 
2 -5.27102 0.435082 2 4 5 5 5 5 6 6 6 5 5 5 5 4 2 -0.352041 -0.334057 -0.33575 -0.333856 -0.339541 -0.352522 -0.374264 -0.426955 -0.374265 -0.352522 -0.339541 -0.333856 -0.33575 -0.334057 -0.35204 
2.1 -5.29024 0.471213 2 4 5 5 5 5 6 6 6 5 5 5 5 4 2 -0.352041 -0.334052 -0.335627 -0.333344 -0.343794 -0.353396 -0.376257 -0.433222 -0.376257 -0.353396 -0.343794 -0.333344 -0.335627 -0.334052 -0.35204 
2.2 -5.31021 0.505353 2 4 5 5 5 5 6 7 6 6 5 5 5 4 2 -0.35204 -0.334041 -0.335348 -0.3337 -0.347857 -0.354354 -0.378466 -0.438593 -0.378466 -0.354354 -0.347858 -0.333701 -0.335348 -0.334041 -0.352039 
2.3 -5.32986 0.53783 2 4 5 5 5 6 7 8 7 6 5 5 5 4 2 -0.352039 -0.33402 -0.334828 -0.335421 -0.350533 -0.355695 -0.380887 -0.443011 -0.380888 -0.355695 -0.350534 -0.335421 -0.334828 -0.33402 -0.352038 
2.4 -5.34876 0.568988 2 4 5 5 5 6 8 8 8 6 5 5 5 4 2 -0.352036 -0.333976 -0.334107 -0.338541 -0.351544 -0.357434 -0.383514 -0.446452 -0.383514 -0.357435 -0.351544 -0.338541 -0.334107 -0.333976 -0.352036 
2.5 -5.3679 0.599113 2 4 5 5 5 7 8 8 8 7 5 5 5 4 2 -0.352031 -0.33387 -0.333515 -0.342652 -0.351584 -0.359514 -0.386324 -0.448919 -0.386324 -0.359514 -0.351584 -0.342653 -0.333515 -0.33387 -0.352031 
2.6 -5.38784 0.62838 2 4 5 5 5 7 8 8 8 7 5 5 5 4 2 -0.352021 -0.333626 -0.333678 -0.346782 -0.351419 -0.361893 -0.389279 -0.450443 -0.389279 -0.361893 -0.351419 -0.346783 -0.333679 -0.333626 -0.352021 
2.7 -5.40767 0.65685 2 4 5 5 6 8 8 8 8 8 6 5 5 4 2 -0.352003 -0.333152 -0.335148 -0.349678 -0.35143 -0.364554 -0.39233 -0.451079 -0.39233 -0.364554 -0.35143 -0.349678 -0.335148 -0.333152 -0.352003 
2.8 -5.42669 0.684484 2 4 5 5 6 8 8 8 8 8 6 5 5 4 2 -0.351963 -0.332455 -0.338034 -0.35085 -0.351686 -0.367482 -0.395423 -0.450904 -0.395423 -0.367482 -0.351687 -0.35085 -0.338034 -0.332455 -0.351963 
2.9 -5.44576 0.711184 2 4 5 5 7 8 8 9 8 8 7 5 5 4 2 -0.35187 -0.33181 -0.342003 -0.350879 -0.35216 -0.370653 -0.398498 -0.45001 -0.398498 -0.370653 -0.352161 -0.350879 -0.342003 -0.33181 -0.35187 
3 -5.46563 0.73685 2 4 5 5 7 8 9 9 9 8 7 5 5 4 2 -0.351653 -0.331805 -0.346174 -0.350561 -0.352841 -0.374031 -0.401494 -0.448505 -0.401494 -0.374032 -0.352841 -0.350562 -0.346175 -0.331805 -0.351652 
3.1 -5.48559 0.761422 2 4 5 6 8 8 9 10 9 8 8 6 5 4 2 -0.351216 -0.33304 -0.349274 -0.350338 -0.353745 -0.377574 -0.404354 -0.446504 -0.404354 -0.377574 -0.353746 -0.350338 -0.349274 -0.33304 -0.351216 
3.2 -5.50477 0.784919 2 4 5 6 8 8 10 10 10 8 8 6 5 4 2 -0.350544 -0.335704 -0.350612 -0.350307 -0.3549 -0.381231 -0.407025 -0.444124 -0.407025 -0.38123 -0.354901 -0.350307 -0.350613 -0.335704 -0.350544 
3.3 -5.5239 0.807448 2 4 5 7 8 9 10 11 10 9 8 7 5 4 2 -0.349869 -0.339536 -0.350633 -0.350437 -0.356322 -0.384949 -0.409462 -0.441481 -0.409463 -0.384949 -0.356323 -0.350437 -0.350634 -0.339537 -0.349868 
3.4 -5.54405 0.829203 2 4 6 7 8 10 11 12 11 10 8 7 6 4 2 -0.349752 -0.343749 -0.350153 -0.350704 -0.358018 -0.388675 -0.411631 -0.438686 -0.411631 -0.388674 -0.35802 -0.350704 -0.350154 -0.34375 -0.349751 
3.5 -5.56488 0.850432 2 4 6 8 8 10 12 13 12 10 8 8 6 4 2 -0.350806 -0.347077 -0.349678 -0.351116 -0.359985 -0.392353 -0.413505 -0.435841 -0.413506 -0.392352 -0.359987 -0.351116 -0.349679 -0.347077 -0.350805 
3.6 -5.58532 0.8714 2 4 7 8 8 10 13 13 13 10 8 8 7 4 2 -0.353243 -0.348643 -0.349344 -0.351697 -0.362211 -0.395929 -0.415073 -0.433035 -0.415074 -0.395928 -0.362213 -0.351696 -0.349344 -0.348644 -0.353242 
3.7 -5.60535 0.892353 2 4 7 8 9 11 13 14 13 11 9 8 7 4 2 -0.356847 -0.348708 -0.349122 -0.352464 -0.364676 -0.399354 -0.416333 -0.430343 -0.416333 -0.399353 -0.364678 -0.352464 -0.349122 -0.348708 -0.356846 
3.8 -5.62497 0.913481 2 4 8 8 10 12 14 15 14 12 10 8 8 4 2 -0.360879 -0.348059 -0.348975 -0.35343 -0.367354 -0.402582 -0.417291 -0.427827 -0.417292 -0.402581 -0.367356 -0.35343 -0.348975 -0.348059 -0.360879 
3.9 -5.64221 0.934899 2 4 8 8 10 13 15 16 15 13 10 8 8 4 2 -0.363849 -0.34724 -0.348898 -0.354598 -0.370213 -0.405574 -0.417968 -0.425531 -0.417969 -0.405573 -0.370215 -0.354598 -0.348898 -0.347241 -0.363849 
4 -5.6545 0.956652 2 4 8 9 10 13 16 17 16 13 10 9 8 4 2 -0.364326 -0.346413 -0.348901 -0.355967 -0.373216 -0.408297 -0.418388 -0.423484 -0.418388 -0.408295 -0.373219 -0.355967 -0.348901 -0.346414 -0.364326 
4.1 -5.66156 0.978729 2 4 8 9 11 14 17 17 17 14 11 9 8 4 2 -0.362224 -0.345549 -0.34899 -0.357531 -0.376325 -0.410725 -0.418582 -0.421702 -0.418583 -0.410723 -0.376327 -0.357531 -0.34899 -0.345549 -0.362224 
4.2 -5.66502 1.00108 2 4 8 10 12 15 17 18 17 15 12 10 8 4 2 -0.358438 -0.34461 -0.349166 -0.35928 -0.379495 -0.41284 -0.418587 -0.42019 -0.418588 -0.412838 -0.379498 -0.35928 -0.349166 -0.34461 -0.358438 
4.3 -5.66658 1.02367 2 4 8 10 13 16 18 19 18 16 13 10 8 4 2 -0.353836 -0.343602 -0.349423 -0.3612 -0.382684 -0.414633 -0.41844 -0.41894 -0.418441 -0.414632 -0.382686 -0.361199 -0.349423 -0.343602 -0.353836 
4.4 -5.66723 1.04645 2 4 8 11 14 17 19 19 19 17 14 11 8 4 2 -0.348936 -0.342559 -0.349751 -0.363272 -0.385848 -0.416102 -0.41818 -0.417936 -0.41818 -0.416101 -0.38585 -0.363272 -0.349751 -0.342559 -0.348936 
4.5 -5.6675 1.06942 2 4 8 11 14 18 19 21 19 18 14 12 8 4 2 -0.343987 -0.341527 -0.350142 -0.365475 -0.388943 -0.417253 -0.417843 -0.417158 -0.417842 -0.417253 -0.388945 -0.365475 -0.350142 -0.341527 -0.343987 
4.6 -5.66761 1.09262 2 4 8 13 15 18 21 22 21 18 15 13 8 4 2 -0.339097 -0.340552 -0.35059 -0.367784 -0.391929 -0.4181 -0.417462 -0.41658 -0.417461 -0.4181 -0.39193 -0.367785 -0.350589 -0.340552 -0.339097 
4.7 -5.66765 1.11608 2 4 8 13 17 19 22 23 22 19 17 13 8 4 2 -0.33431 -0.339672 -0.351089 -0.370171 -0.394765 -0.418661 -0.417067 -0.416176 -0.417066 -0.418661 -0.394766 -0.370172 -0.351089 -0.339671 -0.33431 
4.8 -5.66766 1.13983 2 4 8 14 18 20 23 24 23 20 18 14 8 4 2 -0.329647 -0.338917 -0.351641 -0.372605 -0.397419 -0.418962 -0.416681 -0.415917 -0.41668 -0.418963 -0.397419 -0.372607 -0.351641 -0.338917 -0.329647 
4.9 -5.66767 1.16391 2 4 8 14 18 21 24 26 24 21 18 14 8 4 2 -0.325121 -0.338307 -0.35225 -0.375052 -0.399858 -0.419032 -0.416325 -0.415779 -0.416324 -0.419033 -0.399857 -0.375054 -0.352249 -0.338307 -0.325121 
5 -5.66767 1.18829 2 4 8 15 19 22 26 26 26 22 19 15 8 4 2 -0.320746 -0.33785 -0.352923 -0.377476 -0.402058 -0.418903 -0.416012 -0.415736 -0.416009 -0.418905 -0.402056 -0.377478 -0.352923 -0.33785 -0.320746 
5.1 -5.66767 1.21291 2 4 8 16 20 23 27 28 26 23 20 16 8 4 2 -0.31654 -0.337544 -0.353672 -0.37984 -0.403998 -0.418609 -0.415748 -0.41577 -0.415745 -0.418612 -0.403996 -0.379842 -0.353672 -0.337544 -0.31654 
5.2 -5.66767 1.2377 2 4 8 16 21 25 28 29 28 25 21 16 8 4 2 -0.312524 -0.337377 -0.354511 -0.382107 -0.405665 -0.418184 -0.415538 -0.415861 -0.415535 -0.418188 -0.405663 -0.38211 -0.35451 -0.337376 -0.312525 
5.3 -5.66767 1.26255 2 4 8 16 22 27 29 31 29 27 22 16 8 4 2 -0.308725 -0.337328 -0.355452 -0.384241 -0.407052 -0.417661 -0.415379 -0.415996 -0.415375 -0.417666 -0.407049 -0.384244 -0.355451 -0.337327 -0.308726 
5.4 -5.66767 1.28736 2 4 8 16 23 27 31 32 31 27 22 16 8 4 2 -0.305172 -0.33737 -0.35651 -0.386208 -0.408156 -0.417072 -0.415267 -0.416164 -0.415263 -0.417077 -0.408152 -0.386211 -0.356509 -0.337369 -0.305172 
5.5 -5.66767 1.31206 2 4 8 16 24 29 32 34 32 29 24 16 8 4 2 -0.301895 -0.33747 -0.357696 -0.387978 -0.408981 -0.416444 -0.415195 -0.416356 -0.415191 -0.416449 -0.408977 -0.387981 -0.357696 -0.337469 -0.301896 
5.6 -5.66767 1.33661 2 4 8 16 25 31 35 37 35 31 25 16 8 4 2 -0.298929 -0.337592 -0.359018 -0.389526 -0.409536 -0.4158 -0.415154 -0.416564 -0.41515 -0.415805 -0.409532 -0.389529 -0.359017 -0.337592 -0.29893 
5.7 -5.66767 1.361 2 4 8 16 26 33 37 38 37 33 26 16 8 4 2 -0.296307 -0.337699 -0.360476 -0.390834 -0.409834 -0.415159 -0.415135 -0.416784 -0.415131 -0.415165 -0.40983 -0.390837 -0.360476 -0.337699 -0.296308 
5.8 -5.66767 1.38528 2 4 8 16 26 34 38 40 38 35 26 16 8 4 2 -0.294065 -0.337753 -0.362068 -0.39189 -0.409892 -0.414535 -0.415129 -0.41701 -0.415125 -0.414541 -0.409887 -0.391892 -0.362068 -0.337753 -0.294066 
