time energy SvN bondDim localEnergy 
0 -5.06648 0.0530544 2 4 5 5 5 5 5 5 5 5 5 5 5 4 2 -0.352039 -0.334061 -0.335845 -0.335731 -0.335748 -0.335772 -0.335971 -0.336152 -0.335971 -0.335772 -0.335748 -0.335731 -0.335845 -0.334061 -0.352039 
0.1 -5.06657 0.0530918 2 4 5 5 5 5 5 5 5 5 5 5 5 4 2 -0.352039 -0.334061 -0.335845 -0.335731 -0.335749 -0.335775 -0.335991 -0.336187 -0.335991 -0.335775 -0.335749 -0.335731 -0.335845 -0.334061 -0.352039 
0.2 -5.06693 0.0532551 2 4 5 5 5 5 5 5 5 5 5 5 5 4 2 -0.352039 -0.334061 -0.335846 -0.335732 -0.335752 -0.335788 -0.336078 -0.336339 -0.336078 -0.335788 -0.335752 -0.335732 -0.335846 -0.334061 -0.352039 
0.3 -5.06782 0.0536609 2 4 5 5 5 5 5 5 5 5 5 5 5 4 2 -0.35204 -0.334062 -0.335847 -0.335734 -0.33576 -0.335821 -0.336292 -0.336714 -0.336292 -0.335821 -0.33576 -0.335734 -0.335847 -0.334062 -0.352039 
0.4 -5.06956 0.0544608 2 4 5 5 5 5 5 5 5 5 5 5 5 4 2 -0.35204 -0.334062 -0.335848 -0.335738 -0.335776 -0.335886 -0.336711 -0.337442 -0.336711 -0.335886 -0.335776 -0.335738 -0.335848 -0.334062 -0.35204 
0.5 -5.07255 0.0558591 2 4 5 5 5 5 5 5 5 5 5 5 5 4 2 -0.352041 -0.334063 -0.335849 -0.335744 -0.335803 -0.335999 -0.33743 -0.338688 -0.33743 -0.335999 -0.335803 -0.335744 -0.335849 -0.334063 -0.35204 
0.6 -5.0773 0.058144 2 4 5 5 5 5 5 5 5 5 5 5 5 4 2 -0.352041 -0.334063 -0.335852 -0.335755 -0.335849 -0.336188 -0.338575 -0.340657 -0.338576 -0.336188 -0.335849 -0.335755 -0.335852 -0.334064 -0.35204 
0.7 -5.0845 0.0617295 2 4 5 5 5 5 5 5 5 5 5 5 5 4 2 -0.352041 -0.334064 -0.335856 -0.335771 -0.335923 -0.336493 -0.340307 -0.34359 -0.340307 -0.336493 -0.335923 -0.335771 -0.335856 -0.334064 -0.35204 
0.8 -5.09491 0.0671883 2 4 5 5 5 5 5 5 5 5 5 5 5 4 2 -0.352042 -0.334065 -0.335862 -0.335798 -0.336044 -0.336981 -0.342803 -0.347725 -0.342804 -0.336981 -0.336044 -0.335798 -0.335862 -0.334065 -0.352041 
0.9 -5.10928 0.0752448 2 4 5 5 5 5 5 5 5 5 5 5 5 4 2 -0.352042 -0.334067 -0.335871 -0.335842 -0.336239 -0.337756 -0.346222 -0.353196 -0.346222 -0.337756 -0.33624 -0.335842 -0.335871 -0.334067 -0.352041 
1 -5.12805 0.0866888 2 4 5 5 5 5 5 5 5 5 5 5 5 4 2 -0.352043 -0.334071 -0.335888 -0.335914 -0.336557 -0.338964 -0.350626 -0.359922 -0.350627 -0.338965 -0.336557 -0.335914 -0.335888 -0.334071 -0.352042 
1.1 -5.15125 0.102205 2 4 5 5 5 5 5 5 5 5 5 5 5 4 2 -0.352044 -0.334077 -0.335915 -0.336033 -0.33707 -0.340785 -0.35592 -0.367558 -0.355921 -0.340785 -0.33707 -0.336033 -0.335915 -0.334077 -0.352044 
1.2 -5.17844 0.122172 2 4 5 5 5 5 5 5 5 5 5 5 5 4 2 -0.352047 -0.334087 -0.33596 -0.336228 -0.337888 -0.343387 -0.361823 -0.375597 -0.361823 -0.343387 -0.337888 -0.336228 -0.33596 -0.334087 -0.352047 
1.3 -5.2089 0.146535 2 4 5 5 5 5 5 5 5 5 5 5 5 4 2 -0.352052 -0.334104 -0.336035 -0.336548 -0.339164 -0.346857 -0.367915 -0.383545 -0.367915 -0.346857 -0.339165 -0.336548 -0.336035 -0.334104 -0.352052 
1.4 -5.24181 0.174806 2 4 5 5 5 5 5 5 5 5 5 5 5 4 2 -0.35206 -0.334132 -0.336158 -0.337067 -0.341076 -0.35113 -0.373755 -0.391053 -0.373755 -0.35113 -0.341076 -0.337067 -0.336158 -0.334132 -0.35206 
1.5 -5.27646 0.206176 2 4 5 5 5 5 5 5 5 5 5 5 5 4 2 -0.352074 -0.334178 -0.336361 -0.337898 -0.343784 -0.355963 -0.379003 -0.397937 -0.379004 -0.355964 -0.343784 -0.337898 -0.336361 -0.334178 -0.352073 
1.6 -5.31229 0.239686 2 4 5 5 5 5 5 5 5 5 5 5 5 4 2 -0.352096 -0.334254 -0.336692 -0.339193 -0.347358 -0.360982 -0.383499 -0.404138 -0.383499 -0.360982 -0.347358 -0.339193 -0.336692 -0.334254 -0.352096 
1.7 -5.34888 0.274378 2 4 5 5 5 5 5 5 5 5 5 5 5 4 2 -0.352133 -0.334378 -0.337228 -0.341129 -0.351707 -0.365782 -0.387249 -0.409669 -0.387249 -0.365782 -0.351708 -0.341129 -0.337228 -0.334378 -0.352133 
1.8 -5.38598 0.309419 2 4 5 5 5 5 5 5 5 5 5 5 5 4 2 -0.352194 -0.334582 -0.338085 -0.34386 -0.356563 -0.370056 -0.390365 -0.414566 -0.390365 -0.370056 -0.356563 -0.34386 -0.338085 -0.334582 -0.352193 
1.9 -5.42339 0.344162 2 4 5 5 5 5 6 6 6 5 5 5 5 4 2 -0.352294 -0.334915 -0.339416 -0.347447 -0.361523 -0.373666 -0.393001 -0.418869 -0.393001 -0.373666 -0.361524 -0.347447 -0.339416 -0.334915 -0.352293 
2 -5.46101 0.378177 2 4 5 5 5 5 6 6 6 5 5 5 5 4 2 -0.352457 -0.335455 -0.341399 -0.351786 -0.366166 -0.376629 -0.395308 -0.422606 -0.395308 -0.37663 -0.366166 -0.351786 -0.341399 -0.335455 -0.352456 
2.1 -5.49874 0.411236 2 4 5 5 5 6 7 7 7 6 5 5 5 4 2 -0.352725 -0.336316 -0.344186 -0.356596 -0.370173 -0.379065 -0.397408 -0.425801 -0.397408 -0.379065 -0.370174 -0.356596 -0.344187 -0.336316 -0.352724 
2.2 -5.53653 0.443276 2 4 5 5 5 6 7 8 8 6 5 5 5 4 2 -0.353161 -0.337651 -0.347829 -0.361468 -0.373403 -0.381127 -0.399392 -0.428466 -0.399392 -0.381127 -0.373403 -0.361468 -0.347829 -0.337651 -0.35316 
2.3 -5.57431 0.474345 2 4 5 5 5 7 8 8 8 7 5 5 5 4 2 -0.353865 -0.339633 -0.352214 -0.365981 -0.375875 -0.382965 -0.401317 -0.430616 -0.401317 -0.382965 -0.375875 -0.365981 -0.352214 -0.339633 -0.353864 
2.4 -5.61203 0.504552 2 4 5 5 6 8 8 8 8 8 6 5 5 4 2 -0.354981 -0.342402 -0.357048 -0.369823 -0.377709 -0.384702 -0.403214 -0.432267 -0.403214 -0.384702 -0.377709 -0.369824 -0.357049 -0.342402 -0.35498 
2.5 -5.64956 0.534018 2 4 5 5 6 8 8 8 8 8 6 5 5 4 2 -0.356699 -0.345992 -0.361917 -0.37286 -0.379067 -0.386429 -0.405093 -0.43344 -0.405093 -0.386429 -0.379068 -0.37286 -0.361917 -0.345993 -0.356698 
2.6 -5.68671 0.562842 2 4 5 5 7 8 8 8 8 8 7 5 5 4 2 -0.359229 -0.350269 -0.366399 -0.375114 -0.38011 -0.388204 -0.406949 -0.434162 -0.406949 -0.388204 -0.38011 -0.375114 -0.366399 -0.350269 -0.359229 
2.7 -5.72317 0.591088 2 4 5 6 8 8 8 9 8 8 8 6 5 4 2 -0.362736 -0.354916 -0.370188 -0.376707 -0.380974 -0.39006 -0.408769 -0.434471 -0.408769 -0.39006 -0.380974 -0.376707 -0.370188 -0.354917 -0.362736 
2.8 -5.75842 0.618784 2 4 5 7 8 8 9 9 9 8 8 7 5 4 2 -0.367248 -0.359499 -0.373155 -0.377797 -0.381766 -0.392009 -0.410531 -0.434407 -0.410531 -0.392009 -0.381767 -0.377797 -0.373155 -0.3595 -0.367249 
2.9 -5.79172 0.645932 2 4 6 7 8 9 10 10 10 9 8 7 6 4 2 -0.372578 -0.363583 -0.375324 -0.37854 -0.382566 -0.394046 -0.412214 -0.434018 -0.412214 -0.394046 -0.382566 -0.37854 -0.375324 -0.363583 -0.372578 
3 -5.82219 0.67253 2 4 6 8 8 9 10 10 10 9 8 8 6 4 2 -0.378305 -0.366851 -0.376812 -0.379067 -0.383427 -0.396158 -0.413794 -0.433356 -0.413794 -0.396158 -0.383427 -0.379067 -0.376812 -0.366851 -0.378306 
3.1 -5.84895 0.698586 2 4 7 8 9 10 10 11 10 10 8 8 7 4 2 -0.38386 -0.369167 -0.377769 -0.379483 -0.384384 -0.398325 -0.41525 -0.432475 -0.41525 -0.398325 -0.384385 -0.379483 -0.377769 -0.369167 -0.383861 
3.2 -5.87136 0.724134 2 4 8 8 9 10 11 11 11 10 9 8 8 4 2 -0.388677 -0.370549 -0.378336 -0.379862 -0.385458 -0.400519 -0.416565 -0.431427 -0.416565 -0.400519 -0.385458 -0.379862 -0.378336 -0.370549 -0.388677 
3.3 -5.88918 0.749234 2 4 8 8 10 10 11 12 11 10 10 8 8 4 2 -0.39236 -0.371115 -0.378627 -0.380257 -0.386658 -0.402714 -0.417726 -0.430264 -0.417726 -0.402714 -0.386658 -0.380257 -0.378627 -0.371115 -0.392361 
3.4 -5.90266 0.773973 2 4 8 9 10 11 13 13 13 11 10 9 8 4 2 -0.394769 -0.371026 -0.378729 -0.380702 -0.387983 -0.40488 -0.418724 -0.429035 -0.418724 -0.40488 -0.387983 -0.380702 -0.378729 -0.371027 -0.394769 
3.5 -5.91241 0.798452 2 4 8 10 10 12 13 14 13 12 10 10 8 4 2 -0.395976 -0.370449 -0.378697 -0.381219 -0.389428 -0.406989 -0.419555 -0.427783 -0.419555 -0.406989 -0.389428 -0.381219 -0.378697 -0.370449 -0.395977 
3.6 -5.91919 0.822775 2 4 8 10 11 13 14 14 14 13 11 10 8 4 2 -0.396185 -0.369537 -0.378565 -0.381819 -0.390982 -0.409014 -0.420221 -0.426547 -0.420221 -0.409015 -0.390982 -0.38182 -0.378565 -0.369537 -0.396185 
3.7 -5.92376 0.847032 2 4 8 10 11 13 15 16 15 13 11 10 8 4 2 -0.395631 -0.368424 -0.378351 -0.382507 -0.39263 -0.410931 -0.420728 -0.425358 -0.420728 -0.410931 -0.39263 -0.382507 -0.378352 -0.368424 -0.395632 
3.8 -5.92676 0.871291 2 4 8 11 13 14 16 17 16 14 13 10 8 4 2 -0.394533 -0.36722 -0.378067 -0.383281 -0.394354 -0.412718 -0.421087 -0.424243 -0.421087 -0.412718 -0.394354 -0.383282 -0.378067 -0.36722 -0.394533 
3.9 -5.92868 0.895598 2 4 8 11 13 16 17 18 17 16 13 11 8 4 2 -0.393063 -0.366017 -0.377715 -0.384137 -0.396133 -0.414356 -0.42131 -0.423218 -0.42131 -0.414356 -0.396132 -0.384138 -0.377715 -0.366017 -0.393063 
4 -5.92989 0.919973 2 4 8 12 15 16 18 18 18 16 14 12 8 4 2 -0.39135 -0.364887 -0.377302 -0.385067 -0.397944 -0.415831 -0.421415 -0.422298 -0.421415 -0.415832 -0.397943 -0.385067 -0.377302 -0.364887 -0.39135 
4.1 -5.93063 0.944423 2 4 8 13 15 18 19 19 19 18 15 13 8 4 2 -0.389482 -0.363885 -0.376832 -0.386059 -0.399763 -0.417133 -0.421419 -0.421489 -0.421419 -0.417133 -0.399762 -0.38606 -0.376832 -0.363885 -0.389482 
4.2 -5.93109 0.968946 2 4 8 13 17 18 19 20 19 18 17 13 8 4 2 -0.387519 -0.363051 -0.376316 -0.387102 -0.401565 -0.418255 -0.421341 -0.420792 -0.42134 -0.418255 -0.401564 -0.387102 -0.376316 -0.363051 -0.38752 
4.3 -5.93136 0.993541 2 4 8 14 18 19 20 21 20 19 18 14 8 4 2 -0.385502 -0.362409 -0.375768 -0.38818 -0.403326 -0.419194 -0.421198 -0.420204 -0.421198 -0.419195 -0.403325 -0.38818 -0.375769 -0.362409 -0.385503 
4.4 -5.93152 1.01821 2 4 8 15 19 20 21 22 21 20 19 15 8 4 2 -0.38346 -0.361972 -0.37521 -0.389276 -0.40502 -0.419953 -0.42101 -0.41972 -0.42101 -0.419954 -0.405018 -0.389276 -0.375211 -0.361971 -0.383461 
4.5 -5.93161 1.04297 2 4 8 15 19 21 22 23 22 21 19 15 8 4 2 -0.381415 -0.36174 -0.374663 -0.390373 -0.406623 -0.420535 -0.420793 -0.419332 -0.420792 -0.420536 -0.406622 -0.390373 -0.374665 -0.361739 -0.381415 
4.6 -5.93167 1.06782 2 4 8 16 20 22 23 24 23 22 20 16 8 4 2 -0.379386 -0.361702 -0.374157 -0.391452 -0.408112 -0.42095 -0.420559 -0.41903 -0.420559 -0.420951 -0.408111 -0.391452 -0.374159 -0.361701 -0.379387 
4.7 -5.9317 1.09278 2 4 8 16 21 23 24 26 25 23 21 16 8 4 2 -0.377394 -0.36184 -0.37372 -0.392496 -0.409468 -0.421207 -0.420323 -0.418803 -0.420322 -0.421208 -0.409467 -0.392495 -0.373723 -0.361839 -0.377395 
4.8 -5.93172 1.11786 2 4 8 16 22 25 27 27 27 24 22 16 8 4 2 -0.375459 -0.362126 -0.373385 -0.393486 -0.41067 -0.421321 -0.420091 -0.41864 -0.420091 -0.421321 -0.41067 -0.393484 -0.373388 -0.362125 -0.375459 
4.9 -5.93173 1.14304 2 4 8 16 23 26 28 28 28 26 23 16 8 4 2 -0.373602 -0.36253 -0.373179 -0.394405 -0.411705 -0.421304 -0.419872 -0.418532 -0.419871 -0.421305 -0.411705 -0.394402 -0.373183 -0.362528 -0.373602 
5 -5.93173 1.16832 2 4 8 16 23 28 29 29 29 28 23 16 8 4 2 -0.371846 -0.363016 -0.373129 -0.39524 -0.412559 -0.421173 -0.419668 -0.418469 -0.419668 -0.421173 -0.41256 -0.395237 -0.373133 -0.363014 -0.371847 
5.1 -5.93173 1.19367 2 4 8 16 24 28 30 31 30 28 24 16 8 4 2 -0.370215 -0.363548 -0.373257 -0.395979 -0.413224 -0.420942 -0.419482 -0.418442 -0.419481 -0.420942 -0.413225 -0.395975 -0.373262 -0.363546 -0.370216 
5.2 -5.93174 1.21905 2 4 8 16 26 31 33 33 33 31 26 16 8 4 2 -0.368734 -0.36409 -0.373579 -0.396614 -0.413693 -0.420626 -0.419311 -0.418443 -0.419311 -0.420626 -0.413695 -0.396609 -0.373584 -0.364087 -0.368735 
