time energy SvN bondDim localEnergy 
0 -6.21761 0.188135 2 4 8 10 10 10 10 10 10 10 10 10 8 4 2 -0.491956 -0.377379 -0.414348 -0.403258 -0.406914 -0.405782 -0.406162 -0.40601 -0.406162 -0.405782 -0.406914 -0.403258 -0.414348 -0.377379 -0.491956 
0.1 -6.21761 0.188135 2 4 8 10 10 10 10 10 10 10 10 10 8 4 2 -0.491956 -0.377379 -0.414348 -0.403258 -0.406914 -0.405782 -0.406162 -0.40601 -0.406162 -0.405782 -0.406914 -0.403258 -0.414348 -0.377379 -0.491956 
0.2 -6.21761 0.188135 2 4 8 10 10 10 10 10 10 10 10 10 8 4 2 -0.491956 -0.377379 -0.414348 -0.403258 -0.406914 -0.405782 -0.406162 -0.40601 -0.406162 -0.405782 -0.406914 -0.403258 -0.414348 -0.377379 -0.491956 
0.3 -6.21761 0.188135 2 4 8 10 10 10 10 10 10 10 10 10 8 4 2 -0.491956 -0.377379 -0.414348 -0.403258 -0.406914 -0.405782 -0.406162 -0.40601 -0.406162 -0.405782 -0.406914 -0.403258 -0.414348 -0.377379 -0.491956 
0.4 -6.21761 0.188135 2 4 8 10 10 10 10 10 10 10 10 10 8 4 2 -0.491956 -0.377379 -0.414348 -0.403258 -0.406914 -0.405782 -0.406162 -0.40601 -0.406162 -0.405782 -0.406914 -0.403258 -0.414348 -0.377379 -0.491956 
0.5 -6.21761 0.188135 2 4 8 10 10 10 10 10 10 10 10 10 8 4 2 -0.491956 -0.377379 -0.414348 -0.403258 -0.406914 -0.405782 -0.406162 -0.40601 -0.406162 -0.405782 -0.406914 -0.403258 -0.414348 -0.377379 -0.491956 
0.6 -6.21761 0.188137 2 4 8 10 10 10 10 10 10 10 10 10 8 4 2 -0.491956 -0.377379 -0.414348 -0.403258 -0.406914 -0.405782 -0.406162 -0.406011 -0.406162 -0.405782 -0.406914 -0.403258 -0.414348 -0.377379 -0.491956 
0.7 -6.21761 0.188146 2 4 8 10 10 10 10 10 10 10 10 10 8 4 2 -0.491956 -0.377379 -0.414348 -0.403258 -0.406914 -0.405781 -0.406164 -0.406016 -0.406164 -0.405781 -0.406914 -0.403258 -0.414348 -0.377379 -0.491956 
0.8 -6.21766 0.188216 2 4 8 10 10 10 10 10 10 10 10 10 8 4 2 -0.491956 -0.377379 -0.414348 -0.403258 -0.406914 -0.405775 -0.406175 -0.406051 -0.406175 -0.405775 -0.406914 -0.403258 -0.414348 -0.377379 -0.491956 
0.9 -6.21794 0.188687 2 4 8 10 10 10 10 10 10 10 10 10 8 4 2 -0.491956 -0.377379 -0.414348 -0.403258 -0.406914 -0.405734 -0.406249 -0.406272 -0.406249 -0.405734 -0.406914 -0.403258 -0.414348 -0.377379 -0.491956 
1 -6.21889 0.190961 2 4 8 10 10 10 10 10 10 10 10 10 8 4 2 -0.491956 -0.377379 -0.414348 -0.403257 -0.406914 -0.405532 -0.406532 -0.407057 -0.406532 -0.405532 -0.406914 -0.403257 -0.414348 -0.377379 -0.491956 
1.1 -6.2203 0.197153 2 4 8 10 10 10 10 10 10 10 10 10 8 4 2 -0.491956 -0.377379 -0.414348 -0.403256 -0.406916 -0.40498 -0.407102 -0.40843 -0.407102 -0.40498 -0.406916 -0.403256 -0.414348 -0.377379 -0.491956 
1.2 -6.2223 0.208289 2 4 8 10 10 10 10 10 10 10 10 10 8 4 2 -0.491956 -0.377379 -0.414348 -0.403253 -0.406922 -0.403973 -0.408025 -0.410593 -0.408025 -0.403973 -0.406922 -0.403253 -0.414348 -0.377379 -0.491956 
1.3 -6.22506 0.224028 2 4 8 10 10 10 10 10 10 10 10 10 8 4 2 -0.491956 -0.377379 -0.414348 -0.403245 -0.406935 -0.402526 -0.40928 -0.413726 -0.40928 -0.402526 -0.406935 -0.403245 -0.414348 -0.377379 -0.491956 
1.4 -6.22854 0.243551 2 4 8 10 10 10 10 10 10 10 10 10 8 4 2 -0.491956 -0.377379 -0.414348 -0.403228 -0.40696 -0.400701 -0.410766 -0.417864 -0.410766 -0.400701 -0.40696 -0.403228 -0.414348 -0.377379 -0.491956 
1.5 -6.2325 0.265928 2 4 8 10 10 10 10 10 10 10 10 10 8 4 2 -0.491956 -0.377378 -0.414348 -0.403198 -0.406984 -0.398628 -0.412281 -0.422952 -0.412281 -0.398628 -0.406984 -0.403198 -0.414348 -0.377378 -0.491956 
1.6 -6.23607 0.290246 2 4 8 10 10 10 10 10 10 10 10 10 8 4 2 -0.491956 -0.377378 -0.414349 -0.40315 -0.406922 -0.396599 -0.413315 -0.428733 -0.413315 -0.396599 -0.406922 -0.40315 -0.414349 -0.377378 -0.491956 
1.7 -6.2384 0.315674 2 4 8 10 10 10 10 10 10 10 10 10 8 4 2 -0.491956 -0.377378 -0.414349 -0.403078 -0.406595 -0.394942 -0.413561 -0.434685 -0.413561 -0.394942 -0.406595 -0.403078 -0.414349 -0.377378 -0.491956 
1.8 -6.24078 0.341499 2 4 8 10 10 10 10 10 10 10 10 10 8 4 2 -0.491956 -0.377377 -0.41435 -0.402981 -0.405875 -0.393904 -0.413772 -0.44035 -0.413772 -0.393904 -0.405875 -0.402981 -0.41435 -0.377377 -0.491956 
1.9 -6.24397 0.367156 2 4 8 10 10 10 10 10 10 10 10 10 8 4 2 -0.491956 -0.377375 -0.414347 -0.402859 -0.404751 -0.393577 -0.414355 -0.445529 -0.414355 -0.393577 -0.404751 -0.402859 -0.414347 -0.377375 -0.491956 
2 -6.24809 0.39223 2 4 8 10 10 10 10 10 10 10 10 10 8 4 2 -0.491956 -0.377372 -0.41434 -0.402715 -0.403271 -0.393929 -0.415396 -0.450131 -0.415396 -0.393929 -0.403271 -0.402715 -0.41434 -0.377372 -0.491956 
2.1 -6.25297 0.416439 2 4 8 10 10 10 10 10 10 10 10 10 8 4 2 -0.491956 -0.377369 -0.414324 -0.402545 -0.401519 -0.394826 -0.416895 -0.454107 -0.416895 -0.394826 -0.401519 -0.402545 -0.414324 -0.377369 -0.491956 
2.2 -6.25783 0.439614 2 4 8 10 10 10 10 10 10 10 10 10 8 4 2 -0.491956 -0.377363 -0.414295 -0.402294 -0.399677 -0.395829 -0.418785 -0.457428 -0.418785 -0.395829 -0.399677 -0.402294 -0.414295 -0.377363 -0.491956 
2.3 -6.26114 0.461663 2 4 8 10 10 10 10 10 10 10 10 10 8 4 2 -0.491956 -0.377356 -0.414249 -0.401802 -0.398 -0.39628 -0.420893 -0.460074 -0.420893 -0.39628 -0.398 -0.401802 -0.414249 -0.377356 -0.491956 
2.4 -6.26396 0.482552 2 4 8 10 10 10 10 10 10 10 10 10 8 4 2 -0.491955 -0.377346 -0.414182 -0.400921 -0.396764 -0.396747 -0.423046 -0.462032 -0.423046 -0.396747 -0.396764 -0.400921 -0.414182 -0.377346 -0.491955 
2.5 -6.26747 0.502274 2 4 8 10 10 10 10 10 10 10 10 10 8 4 2 -0.491954 -0.377331 -0.414096 -0.399624 -0.396121 -0.397789 -0.425173 -0.463294 -0.425173 -0.397789 -0.396121 -0.399624 -0.414096 -0.377331 -0.491954 
2.6 -6.27193 0.520827 2 4 8 10 10 10 10 10 10 10 10 10 8 4 2 -0.491952 -0.377308 -0.413992 -0.397963 -0.396044 -0.399521 -0.427247 -0.463869 -0.427247 -0.399521 -0.396044 -0.397963 -0.413992 -0.377308 -0.491952 
2.7 -6.27722 0.538206 2 4 8 10 10 10 10 10 10 10 10 10 8 4 2 -0.491949 -0.377275 -0.413867 -0.396022 -0.396405 -0.401941 -0.429254 -0.463787 -0.429254 -0.401941 -0.396405 -0.396022 -0.413867 -0.377276 -0.491949 
2.8 -6.28272 0.554397 2 4 8 10 10 10 10 10 10 10 10 10 8 4 2 -0.491945 -0.377228 -0.413686 -0.393966 -0.396826 -0.404985 -0.431176 -0.463093 -0.431176 -0.404985 -0.396826 -0.393966 -0.413686 -0.377228 -0.491945 
2.9 -6.28675 0.569378 2 4 8 10 10 10 10 10 10 10 10 10 8 4 2 -0.491939 -0.377163 -0.413303 -0.39205 -0.396514 -0.408487 -0.432995 -0.461846 -0.432995 -0.408487 -0.396514 -0.39205 -0.413303 -0.377163 -0.491939 
3 -6.28973 0.583137 2 4 8 10 10 10 10 10 10 10 10 10 8 4 2 -0.49193 -0.377079 -0.412547 -0.390545 -0.395781 -0.412238 -0.434687 -0.460119 -0.434687 -0.412238 -0.395781 -0.390545 -0.412547 -0.377079 -0.49193 
3.1 -6.29325 0.595679 2 4 8 10 10 10 10 10 10 10 10 10 8 4 2 -0.491916 -0.376975 -0.411354 -0.389665 -0.395384 -0.416109 -0.436225 -0.457992 -0.436225 -0.416109 -0.395384 -0.389665 -0.411354 -0.376975 -0.491916 
3.2 -6.29773 0.607046 2 4 8 10 10 10 10 10 10 10 10 10 8 4 2 -0.491893 -0.376856 -0.409755 -0.389431 -0.395537 -0.42003 -0.437588 -0.455548 -0.437588 -0.42003 -0.395537 -0.389431 -0.409755 -0.376856 -0.491893 
3.3 -6.30315 0.617322 2 4 8 10 10 10 10 10 10 10 10 10 8 4 2 -0.491858 -0.376725 -0.407819 -0.389755 -0.396276 -0.423947 -0.438758 -0.452872 -0.438758 -0.423947 -0.396276 -0.389755 -0.407819 -0.376725 -0.491858 
3.4 -6.30906 0.626643 2 4 8 10 10 10 10 10 10 10 10 10 8 4 2 -0.491805 -0.376565 -0.405667 -0.39036 -0.397577 -0.427807 -0.439723 -0.450048 -0.439723 -0.427807 -0.397577 -0.39036 -0.405667 -0.376565 -0.491805 
3.5 -6.31386 0.635184 2 4 8 10 10 10 10 11 10 10 10 10 8 4 2 -0.491729 -0.376278 -0.403513 -0.390459 -0.399339 -0.431555 -0.44048 -0.447157 -0.44048 -0.431555 -0.399339 -0.390459 -0.403513 -0.376278 -0.491729 
3.6 -6.3171 0.643155 2 4 8 10 10 10 11 11 11 10 10 10 8 4 2 -0.491624 -0.375702 -0.401591 -0.38993 -0.401404 -0.435132 -0.441032 -0.444276 -0.441032 -0.435132 -0.401404 -0.38993 -0.401591 -0.375702 -0.491624 
3.7 -6.32059 0.650777 2 4 8 10 10 10 11 12 11 10 10 10 8 4 2 -0.491487 -0.374759 -0.400156 -0.389631 -0.403665 -0.438475 -0.441386 -0.441475 -0.441386 -0.438475 -0.403665 -0.389631 -0.400156 -0.374759 -0.491487 
3.8 -6.32504 0.658267 2 4 8 10 10 10 12 12 12 10 10 10 8 4 2 -0.491316 -0.373468 -0.39927 -0.389884 -0.406089 -0.441526 -0.441557 -0.438818 -0.441557 -0.441526 -0.406089 -0.389884 -0.39927 -0.373468 -0.491316 
3.9 -6.33047 0.665812 2 4 8 10 10 11 12 13 12 11 10 10 8 4 2 -0.49111 -0.371895 -0.398859 -0.390747 -0.408655 -0.444232 -0.44156 -0.436357 -0.44156 -0.444232 -0.408655 -0.390747 -0.398859 -0.371895 -0.49111 
4 -6.3366 0.673562 2 4 8 10 10 11 13 13 13 11 10 10 8 4 2 -0.490851 -0.370147 -0.398708 -0.392209 -0.411344 -0.446552 -0.441416 -0.434141 -0.441416 -0.446552 -0.411344 -0.392209 -0.398708 -0.370147 -0.490851 
4.1 -6.34206 0.681613 2 4 8 10 10 11 13 13 13 11 10 10 8 4 2 -0.490445 -0.36844 -0.398119 -0.394191 -0.41413 -0.448456 -0.441147 -0.432204 -0.441147 -0.448456 -0.41413 -0.394191 -0.398119 -0.36844 -0.490445 
4.2 -6.34557 0.690019 2 4 8 10 10 12 13 14 13 12 10 10 8 4 2 -0.489692 -0.367035 -0.396559 -0.396531 -0.416978 -0.449925 -0.440775 -0.430576 -0.440775 -0.449925 -0.416978 -0.396531 -0.396559 -0.367035 -0.489692 
4.3 -6.34887 0.698792 2 4 8 10 10 12 14 15 14 12 10 10 8 4 2 -0.488452 -0.366219 -0.394908 -0.399099 -0.419846 -0.450951 -0.440323 -0.429276 -0.440323 -0.450951 -0.419846 -0.399099 -0.394908 -0.366219 -0.488452 
4.4 -6.353 0.70792 2 4 8 10 10 13 14 15 14 13 10 10 8 4 2 -0.486715 -0.366093 -0.393655 -0.401843 -0.422684 -0.451539 -0.439813 -0.428314 -0.439813 -0.451539 -0.422684 -0.401843 -0.393655 -0.366093 -0.486715 
4.5 -6.3581 0.71738 2 4 8 10 11 13 16 17 16 13 11 10 8 4 2 -0.484537 -0.366609 -0.392906 -0.404738 -0.425446 -0.451703 -0.439265 -0.427692 -0.439265 -0.451703 -0.425446 -0.404738 -0.392906 -0.366609 -0.484537 
4.6 -6.364 0.727154 2 4 8 11 12 13 16 17 16 13 12 11 8 4 2 -0.482002 -0.367604 -0.392684 -0.407759 -0.428088 -0.451464 -0.438698 -0.427406 -0.438698 -0.451464 -0.428088 -0.40776 -0.392684 -0.367604 -0.482002 
4.7 -6.36985 0.737237 2 4 8 11 12 14 17 17 17 14 12 11 8 4 2 -0.479227 -0.368585 -0.392955 -0.410879 -0.430572 -0.450855 -0.438128 -0.427443 -0.438128 -0.450855 -0.430571 -0.410879 -0.392955 -0.368585 -0.479227 
4.8 -6.37403 0.747638 2 4 8 11 13 15 18 18 18 15 13 11 8 4 2 -0.476263 -0.368841 -0.393616 -0.414057 -0.432864 -0.449914 -0.437569 -0.427784 -0.437569 -0.449914 -0.432864 -0.414057 -0.393616 -0.368841 -0.476263 
4.9 -6.37781 0.758379 2 4 8 11 13 16 18 18 18 16 13 11 8 4 2 -0.473309 -0.368929 -0.39456 -0.417247 -0.434939 -0.448684 -0.437033 -0.428406 -0.437033 -0.448684 -0.434939 -0.417247 -0.39456 -0.368929 -0.473309 
5 -6.38256 0.769479 2 4 8 11 13 16 18 19 18 16 13 11 8 4 2 -0.470578 -0.369395 -0.395756 -0.42039 -0.436777 -0.447213 -0.43653 -0.429279 -0.43653 -0.447213 -0.436777 -0.42039 -0.395756 -0.369396 -0.470578 
5.1 -6.38856 0.780949 2 4 8 12 15 16 19 20 19 16 15 12 8 4 2 -0.468116 -0.370357 -0.397207 -0.423431 -0.438364 -0.445552 -0.436066 -0.430369 -0.436066 -0.445552 -0.438364 -0.423431 -0.397207 -0.370357 -0.468116 
5.2 -6.39562 0.792776 2 4 8 13 15 18 20 20 20 18 15 13 8 4 2 -0.465849 -0.371814 -0.398919 -0.426313 -0.439694 -0.443754 -0.435648 -0.431638 -0.435648 -0.443754 -0.439694 -0.426313 -0.398919 -0.371814 -0.465849 
5.3 -6.4026 0.804916 2 4 8 13 16 18 20 21 20 18 16 13 8 4 2 -0.463278 -0.373707 -0.400895 -0.428985 -0.440766 -0.441869 -0.435281 -0.433045 -0.435281 -0.441869 -0.440766 -0.428985 -0.400895 -0.373707 -0.463278 
5.4 -6.4064 0.817298 2 4 8 13 16 18 21 22 21 18 16 13 8 4 2 -0.459026 -0.375877 -0.403127 -0.4314 -0.441582 -0.439949 -0.434966 -0.434549 -0.434966 -0.439949 -0.441582 -0.4314 -0.403127 -0.375877 -0.459026 
5.5 -6.40731 0.829826 2 4 8 14 16 19 21 23 21 19 16 14 8 4 2 -0.45345 -0.378138 -0.405594 -0.433518 -0.442153 -0.438043 -0.434707 -0.436105 -0.434707 -0.438043 -0.442153 -0.433518 -0.405594 -0.378138 -0.45345 
5.6 -6.40746 0.842388 2 4 8 14 17 19 22 23 22 19 17 14 8 4 2 -0.447745 -0.380397 -0.408258 -0.435306 -0.442492 -0.436195 -0.434503 -0.43767 -0.434503 -0.436195 -0.442492 -0.435306 -0.408258 -0.380397 -0.447745 
5.7 -6.40748 0.85487 2 4 8 14 18 20 23 25 23 20 19 14 8 4 2 -0.44228 -0.382627 -0.411081 -0.436738 -0.442614 -0.434446 -0.434356 -0.439201 -0.434356 -0.434446 -0.442614 -0.436738 -0.411081 -0.382627 -0.44228 
5.8 -6.40749 0.867172 2 4 8 14 19 21 25 26 25 21 19 14 8 4 2 -0.437155 -0.38481 -0.41402 -0.437793 -0.442539 -0.432832 -0.434265 -0.440657 -0.434265 -0.432832 -0.442539 -0.437793 -0.41402 -0.384811 -0.437155 
5.9 -6.40749 0.879208 2 4 8 15 19 21 25 27 25 21 19 15 8 4 2 -0.432423 -0.386921 -0.417037 -0.438461 -0.442288 -0.431385 -0.43423 -0.442001 -0.43423 -0.431385 -0.442288 -0.438461 -0.417037 -0.386921 -0.432423 
6 -6.40749 0.890921 2 4 8 15 19 22 27 28 27 22 20 15 8 4 2 -0.428135 -0.388923 -0.420093 -0.438738 -0.441881 -0.430127 -0.434248 -0.443197 -0.434248 -0.430127 -0.441881 -0.438738 -0.420093 -0.388923 -0.428135 
6.1 -6.40749 0.90228 2 4 8 16 20 23 27 29 27 23 20 16 8 4 2 -0.42434 -0.390777 -0.423153 -0.438627 -0.441343 -0.429079 -0.434318 -0.444217 -0.434318 -0.429079 -0.441343 -0.438627 -0.423153 -0.390777 -0.42434 
6.2 -6.40749 0.91327 2 4 8 16 20 24 28 30 28 24 20 16 8 4 2 -0.421088 -0.392431 -0.426185 -0.43814 -0.440693 -0.428252 -0.434437 -0.445034 -0.434437 -0.428252 -0.440693 -0.43814 -0.426185 -0.392431 -0.421088 
6.3 -6.40749 0.923895 2 4 8 16 21 25 29 31 29 25 21 16 8 4 2 -0.418431 -0.393831 -0.429163 -0.437296 -0.439954 -0.427652 -0.434601 -0.445631 -0.434601 -0.427652 -0.439954 -0.437296 -0.429163 -0.393831 -0.418431 
6.4 -6.40749 0.93416 2 4 8 16 21 27 30 33 30 27 21 16 8 4 2 -0.416417 -0.394915 -0.432064 -0.436118 -0.439147 -0.427278 -0.434807 -0.445994 -0.434807 -0.427278 -0.439147 -0.436118 -0.432064 -0.394915 -0.416418 
6.5 -6.40749 0.944071 2 4 8 16 22 27 31 34 31 28 22 16 8 4 2 -0.415094 -0.39562 -0.434868 -0.434638 -0.43829 -0.427126 -0.435049 -0.446117 -0.435049 -0.427126 -0.438291 -0.434638 -0.434867 -0.39562 -0.415094 
6.6 -6.40749 0.953629 2 4 8 16 23 28 33 35 33 29 23 16 8 4 2 -0.414504 -0.395884 -0.437559 -0.432891 -0.437403 -0.427181 -0.435323 -0.445999 -0.435323 -0.427181 -0.437403 -0.432891 -0.437559 -0.395884 -0.414504 
6.7 -6.40749 0.962833 2 4 8 16 23 29 34 37 34 29 23 16 8 4 2 -0.414684 -0.395645 -0.440127 -0.430915 -0.436501 -0.427428 -0.435621 -0.445647 -0.435621 -0.427428 -0.436501 -0.430915 -0.440127 -0.395645 -0.414684 
6.8 -6.40749 0.971682 2 4 8 16 25 31 35 38 35 31 25 16 8 4 2 -0.415668 -0.394845 -0.442561 -0.428753 -0.4356 -0.427844 -0.435938 -0.445072 -0.435938 -0.427844 -0.4356 -0.428753 -0.442561 -0.394845 -0.415668 
6.9 -6.40749 0.980178 2 4 8 16 25 32 37 40 37 32 25 16 8 4 2 -0.417478 -0.393433 -0.444856 -0.426447 -0.434715 -0.428403 -0.436265 -0.444293 -0.436265 -0.428404 -0.434714 -0.426447 -0.444856 -0.393433 -0.417478 
7 -6.40749 0.988336 2 4 8 16 26 32 40 42 40 32 26 16 8 4 2 -0.420132 -0.391368 -0.447005 -0.424043 -0.433859 -0.429076 -0.436597 -0.443331 -0.436596 -0.429076 -0.433859 -0.424043 -0.447004 -0.391368 -0.420132 
7.1 -6.40749 0.996184 2 4 8 16 26 34 41 43 41 34 26 16 8 4 2 -0.423636 -0.388618 -0.449004 -0.421584 -0.433045 -0.429828 -0.436924 -0.442213 -0.436923 -0.429828 -0.433045 -0.421584 -0.449003 -0.388618 -0.423636 
7.2 -6.40749 1.00377 2 4 8 16 27 36 42 45 43 36 27 16 8 4 2 -0.427986 -0.385164 -0.450849 -0.419111 -0.432286 -0.430625 -0.437239 -0.440969 -0.437238 -0.430626 -0.432286 -0.419111 -0.450849 -0.385164 -0.427986 
7.3 -6.40749 1.01114 2 4 8 16 27 37 45 46 45 37 27 16 8 4 2 -0.433169 -0.381 -0.452538 -0.416663 -0.431594 -0.431431 -0.437534 -0.43963 -0.437534 -0.431432 -0.431593 -0.416664 -0.452538 -0.381 -0.433169 
