time energy SvN bondDim localEnergy 
0 -6.21761 0.188135 2 4 8 10 10 10 10 10 10 10 10 10 8 4 2 -0.491956 -0.377379 -0.414348 -0.403258 -0.406914 -0.405782 -0.406162 -0.40601 -0.406162 -0.405782 -0.406914 -0.403258 -0.414348 -0.377379 -0.491956 
0.1 -6.21761 0.188135 2 4 8 10 10 10 10 10 10 10 10 10 8 4 2 -0.491956 -0.377379 -0.414348 -0.403258 -0.406914 -0.405782 -0.406162 -0.40601 -0.406162 -0.405782 -0.406914 -0.403258 -0.414348 -0.377379 -0.491956 
0.2 -6.21761 0.188135 2 4 8 10 10 10 10 10 10 10 10 10 8 4 2 -0.491956 -0.377379 -0.414348 -0.403258 -0.406914 -0.405782 -0.406162 -0.40601 -0.406162 -0.405782 -0.406914 -0.403258 -0.414348 -0.377379 -0.491956 
0.3 -6.21761 0.188135 2 4 8 10 10 10 10 10 10 10 10 10 8 4 2 -0.491956 -0.377379 -0.414348 -0.403258 -0.406914 -0.405782 -0.406162 -0.40601 -0.406162 -0.405782 -0.406914 -0.403258 -0.414348 -0.377379 -0.491956 
0.4 -6.21761 0.188135 2 4 8 10 10 10 10 10 10 10 10 10 8 4 2 -0.491956 -0.377379 -0.414348 -0.403258 -0.406914 -0.405782 -0.406162 -0.40601 -0.406162 -0.405782 -0.406914 -0.403258 -0.414348 -0.377379 -0.491956 
0.5 -6.21761 0.188135 2 4 8 10 10 10 10 10 10 10 10 10 8 4 2 -0.491956 -0.377379 -0.414348 -0.403258 -0.406914 -0.405782 -0.406162 -0.40601 -0.406162 -0.405782 -0.406914 -0.403258 -0.414348 -0.377379 -0.491956 
0.6 -6.21761 0.188137 2 4 8 10 10 10 10 10 10 10 10 10 8 4 2 -0.491956 -0.377379 -0.414348 -0.403258 -0.406914 -0.405782 -0.406162 -0.406011 -0.406162 -0.405782 -0.406914 -0.403258 -0.414348 -0.377379 -0.491956 
0.7 -6.21761 0.188146 2 4 8 10 10 10 10 10 10 10 10 10 8 4 2 -0.491956 -0.377379 -0.414348 -0.403258 -0.406914 -0.405781 -0.406164 -0.406016 -0.406164 -0.405781 -0.406914 -0.403258 -0.414348 -0.377379 -0.491956 
0.8 -6.21766 0.188216 2 4 8 10 10 10 10 10 10 10 10 10 8 4 2 -0.491956 -0.377379 -0.414348 -0.403258 -0.406914 -0.405775 -0.406175 -0.406051 -0.406175 -0.405775 -0.406914 -0.403258 -0.414348 -0.377379 -0.491956 
0.9 -6.21794 0.188687 2 4 8 10 10 10 10 10 10 10 10 10 8 4 2 -0.491956 -0.377379 -0.414348 -0.403258 -0.406914 -0.405734 -0.406249 -0.406272 -0.406249 -0.405734 -0.406914 -0.403258 -0.414348 -0.377379 -0.491956 
1 -6.21889 0.190961 2 4 8 10 10 10 10 10 10 10 10 10 8 4 2 -0.491956 -0.377379 -0.414348 -0.403257 -0.406914 -0.405532 -0.406532 -0.407057 -0.406532 -0.405532 -0.406914 -0.403257 -0.414348 -0.377379 -0.491956 
1.1 -6.2203 0.197153 2 4 8 10 10 10 10 10 10 10 10 10 8 4 2 -0.491956 -0.377379 -0.414348 -0.403256 -0.406916 -0.40498 -0.407103 -0.40843 -0.407103 -0.40498 -0.406916 -0.403256 -0.414348 -0.377379 -0.491956 
1.2 -6.2223 0.208289 2 4 8 10 10 10 10 10 10 10 10 10 8 4 2 -0.491956 -0.377379 -0.414348 -0.403253 -0.406921 -0.403976 -0.408024 -0.410591 -0.408024 -0.403976 -0.406921 -0.403253 -0.414348 -0.377379 -0.491956 
1.3 -6.22505 0.224028 2 4 8 10 10 10 10 10 10 10 10 10 8 4 2 -0.491956 -0.377379 -0.414348 -0.403245 -0.406929 -0.402544 -0.409269 -0.413712 -0.409269 -0.402544 -0.406929 -0.403245 -0.414348 -0.377379 -0.491956 
1.4 -6.22836 0.243551 2 4 8 10 10 10 10 10 10 10 10 10 8 4 2 -0.491956 -0.377379 -0.414348 -0.403228 -0.406915 -0.40082 -0.410648 -0.417768 -0.410648 -0.40082 -0.406915 -0.403228 -0.414348 -0.377379 -0.491956 
1.5 -6.23125 0.265929 2 4 8 10 10 10 10 10 10 10 10 10 8 4 2 -0.491956 -0.377378 -0.414348 -0.403199 -0.406764 -0.399128 -0.411619 -0.422466 -0.411619 -0.399128 -0.406764 -0.403199 -0.414348 -0.377378 -0.491956 
1.6 -6.23327 0.290257 2 4 8 10 10 10 10 10 10 10 10 10 8 4 2 -0.491956 -0.377378 -0.414348 -0.403152 -0.406294 -0.397777 -0.412079 -0.427308 -0.412079 -0.397777 -0.406294 -0.403152 -0.414348 -0.377378 -0.491956 
1.7 -6.23563 0.315725 2 4 8 10 10 10 10 10 10 10 10 10 8 4 2 -0.491956 -0.377378 -0.414346 -0.403086 -0.405408 -0.396985 -0.412687 -0.431941 -0.412687 -0.396985 -0.405408 -0.403086 -0.414346 -0.377378 -0.491956 
1.8 -6.23881 0.34166 2 4 8 10 10 10 10 10 10 10 10 10 8 4 2 -0.491956 -0.377377 -0.41434 -0.402998 -0.40413 -0.39679 -0.413702 -0.436229 -0.413702 -0.39679 -0.40413 -0.402998 -0.41434 -0.377377 -0.491956 
1.9 -6.24267 0.367537 2 4 8 10 10 10 10 10 10 10 10 10 8 4 2 -0.491956 -0.377375 -0.414328 -0.402861 -0.402581 -0.397035 -0.415143 -0.440117 -0.415143 -0.397035 -0.402581 -0.402861 -0.414328 -0.377375 -0.491956 
2 -6.24609 0.392981 2 4 8 10 10 10 10 10 10 10 10 10 8 4 2 -0.491956 -0.377373 -0.414304 -0.402559 -0.401028 -0.397151 -0.416893 -0.443568 -0.416893 -0.397151 -0.401028 -0.402559 -0.414304 -0.377373 -0.491956 
2.1 -6.24853 0.417746 2 4 8 10 10 10 10 10 10 10 10 10 8 4 2 -0.491956 -0.377369 -0.414266 -0.401911 -0.39974 -0.396984 -0.418762 -0.446554 -0.418762 -0.396984 -0.39974 -0.401911 -0.414266 -0.377369 -0.491956 
2.2 -6.25128 0.441697 2 4 8 10 10 10 10 10 10 10 10 10 8 4 2 -0.491955 -0.377362 -0.414212 -0.400826 -0.398949 -0.397188 -0.420626 -0.449045 -0.420626 -0.397188 -0.398949 -0.400826 -0.414212 -0.377362 -0.491955 
2.3 -6.2549 0.464769 2 4 8 10 10 10 10 10 10 10 10 10 8 4 2 -0.491954 -0.377349 -0.414139 -0.399331 -0.398688 -0.398019 -0.422456 -0.451022 -0.422456 -0.398019 -0.398688 -0.399331 -0.414139 -0.377349 -0.491954 
2.4 -6.25918 0.486948 2 4 8 10 10 10 10 10 10 10 10 10 8 4 2 -0.491953 -0.377328 -0.414019 -0.397552 -0.398766 -0.399489 -0.424244 -0.452478 -0.424244 -0.399489 -0.398766 -0.397552 -0.414019 -0.377328 -0.491953 
2.5 -6.26288 0.508232 2 4 8 10 10 10 10 10 10 10 10 10 8 4 2 -0.49195 -0.377295 -0.413734 -0.395761 -0.398526 -0.401481 -0.425985 -0.453421 -0.425985 -0.401481 -0.398526 -0.395761 -0.413734 -0.377295 -0.49195 
2.6 -6.26543 0.528621 2 4 8 10 10 10 10 10 10 10 10 10 8 4 2 -0.491946 -0.377246 -0.413099 -0.394232 -0.397789 -0.403802 -0.427668 -0.453871 -0.427668 -0.403802 -0.397789 -0.394232 -0.413099 -0.377246 -0.491946 
2.7 -6.26827 0.548102 2 4 8 10 10 10 10 10 10 10 10 10 8 4 2 -0.491938 -0.37718 -0.412018 -0.393201 -0.397271 -0.40632 -0.429277 -0.453859 -0.429277 -0.40632 -0.397271 -0.393201 -0.412018 -0.37718 -0.491938 
2.8 -6.27198 0.566657 2 4 8 10 10 10 10 10 10 10 10 10 8 4 2 -0.491923 -0.377096 -0.410517 -0.392705 -0.397255 -0.408989 -0.430791 -0.453426 -0.430791 -0.408989 -0.397255 -0.392705 -0.410517 -0.377096 -0.491923 
2.9 -6.27637 0.584268 2 4 8 10 10 10 10 10 10 10 10 10 8 4 2 -0.491897 -0.37697 -0.408713 -0.392561 -0.397765 -0.411779 -0.432193 -0.452618 -0.432193 -0.411779 -0.397765 -0.392561 -0.408713 -0.37697 -0.491897 
3 -6.2802 0.600928 2 4 8 10 10 10 10 10 10 10 10 10 8 4 2 -0.491854 -0.376697 -0.406859 -0.392114 -0.398703 -0.414665 -0.433466 -0.451485 -0.433466 -0.414665 -0.398703 -0.392114 -0.406859 -0.376697 -0.491854 
3.1 -6.28289 0.616656 2 4 8 10 10 10 10 10 10 10 10 10 8 4 2 -0.491791 -0.376113 -0.405203 -0.391178 -0.399906 -0.417611 -0.4346 -0.450084 -0.4346 -0.417611 -0.399906 -0.391178 -0.405203 -0.376113 -0.491791 
3.2 -6.28589 0.631509 2 4 8 10 10 10 10 10 10 10 10 10 8 4 2 -0.491701 -0.375134 -0.40398 -0.390463 -0.401272 -0.420574 -0.435584 -0.448471 -0.435584 -0.420574 -0.401272 -0.390463 -0.40398 -0.375134 -0.491701 
3.3 -6.28979 0.645576 2 4 8 10 10 10 10 11 10 10 10 10 8 4 2 -0.491578 -0.373791 -0.403224 -0.39025 -0.40278 -0.423507 -0.436414 -0.446703 -0.436414 -0.423507 -0.40278 -0.39025 -0.403224 -0.373791 -0.491578 
3.4 -6.2944 0.658984 2 4 8 10 10 10 11 11 11 10 10 10 8 4 2 -0.491389 -0.372206 -0.402738 -0.390566 -0.404433 -0.426364 -0.437087 -0.444837 -0.437087 -0.426364 -0.404433 -0.390566 -0.402738 -0.372206 -0.491389 
3.5 -6.29835 0.671881 2 4 8 10 10 10 11 12 11 10 10 10 8 4 2 -0.491 -0.370649 -0.40181 -0.391315 -0.406231 -0.429101 -0.437605 -0.442926 -0.437605 -0.429101 -0.406231 -0.391315 -0.40181 -0.370649 -0.491 
3.6 -6.301 0.684427 2 4 8 10 10 11 12 12 12 11 10 10 8 4 2 -0.490205 -0.369405 -0.400229 -0.392334 -0.408163 -0.431678 -0.437974 -0.44102 -0.437974 -0.431678 -0.408163 -0.392334 -0.400229 -0.369405 -0.490205 
3.7 -6.30387 0.696771 2 4 8 10 10 11 12 13 12 11 10 10 8 4 2 -0.488894 -0.368714 -0.398745 -0.393529 -0.410209 -0.43406 -0.438203 -0.439165 -0.438203 -0.43406 -0.410209 -0.393529 -0.398745 -0.368714 -0.488894 
3.8 -6.30759 0.709045 2 4 8 10 10 11 13 13 13 11 10 10 8 4 2 -0.487084 -0.368609 -0.397655 -0.394884 -0.412344 -0.436215 -0.438302 -0.4374 -0.438302 -0.436215 -0.412344 -0.394884 -0.397655 -0.368609 -0.487084 
3.9 -6.31202 0.721348 2 4 8 10 10 12 13 14 13 12 10 10 8 4 2 -0.48488 -0.368905 -0.396994 -0.396407 -0.414539 -0.438119 -0.438285 -0.435761 -0.438285 -0.438119 -0.414539 -0.396407 -0.396994 -0.368905 -0.48488 
4 -6.31602 0.733747 2 4 8 10 10 12 14 15 14 12 10 10 8 4 2 -0.482446 -0.368962 -0.396679 -0.398103 -0.416765 -0.43975 -0.438169 -0.434275 -0.438168 -0.43975 -0.416765 -0.398103 -0.396679 -0.368962 -0.482446 
4.1 -6.31909 0.746279 2 4 8 10 11 13 14 15 14 13 11 10 8 4 2 -0.479888 -0.368579 -0.396573 -0.399967 -0.418991 -0.441098 -0.437968 -0.432966 -0.437968 -0.441098 -0.418991 -0.399967 -0.396573 -0.368579 -0.479888 
4.2 -6.32271 0.758959 2 4 8 10 11 13 16 17 16 13 11 10 8 4 2 -0.477414 -0.368396 -0.396595 -0.401985 -0.421189 -0.442155 -0.437699 -0.431849 -0.437699 -0.442155 -0.421188 -0.401985 -0.396595 -0.368396 -0.477414 
4.3 -6.32746 0.771794 2 4 8 11 11 14 17 17 17 14 11 11 8 4 2 -0.475094 -0.368663 -0.396741 -0.404133 -0.42333 -0.442921 -0.437379 -0.430934 -0.437379 -0.442921 -0.42333 -0.404133 -0.396741 -0.368663 -0.475094 
4.4 -6.33289 0.784786 2 4 8 11 13 14 17 18 17 14 13 11 8 4 2 -0.472715 -0.369389 -0.397028 -0.406383 -0.42539 -0.443403 -0.437024 -0.430228 -0.437024 -0.443403 -0.425389 -0.406383 -0.397028 -0.369389 -0.472715 
4.5 -6.33677 0.79795 2 4 8 11 13 16 18 18 18 16 13 11 8 4 2 -0.469291 -0.370446 -0.397474 -0.408706 -0.427343 -0.443612 -0.436647 -0.429729 -0.436647 -0.443613 -0.427343 -0.408706 -0.397474 -0.370446 -0.469291 
4.6 -6.33793 0.811307 2 4 8 11 14 16 18 19 18 16 14 11 8 4 2 -0.464458 -0.371638 -0.398087 -0.411068 -0.429169 -0.443566 -0.436262 -0.429434 -0.436262 -0.443566 -0.429169 -0.411068 -0.398087 -0.371638 -0.464458 
4.7 -6.33814 0.824886 2 4 8 12 14 17 19 20 19 17 14 12 8 4 2 -0.459238 -0.372854 -0.398861 -0.413434 -0.430851 -0.443286 -0.43588 -0.429332 -0.43588 -0.443286 -0.430851 -0.413434 -0.398861 -0.372854 -0.459238 
4.8 -6.33818 0.838717 2 4 8 13 15 18 20 20 20 18 15 13 8 4 2 -0.454058 -0.374085 -0.399789 -0.415769 -0.432374 -0.442797 -0.43551 -0.429411 -0.435511 -0.442797 -0.432374 -0.415769 -0.399789 -0.374085 -0.454058 
4.9 -6.33818 0.852822 2 4 8 13 16 18 20 21 20 18 16 13 8 4 2 -0.449011 -0.375342 -0.400859 -0.418036 -0.433727 -0.442126 -0.435162 -0.429654 -0.435162 -0.442126 -0.433727 -0.418036 -0.400859 -0.375342 -0.449011 
5 -6.33818 0.867205 2 4 8 13 17 19 21 22 21 19 17 13 8 4 2 -0.444126 -0.376636 -0.40206 -0.420198 -0.434904 -0.441305 -0.43484 -0.430045 -0.43484 -0.441305 -0.434904 -0.420198 -0.40206 -0.376636 -0.444126 
5.1 -6.33818 0.881851 2 4 8 14 17 19 22 23 22 19 17 14 8 4 2 -0.439425 -0.377972 -0.403381 -0.42222 -0.435899 -0.440364 -0.434549 -0.43056 -0.434549 -0.440364 -0.435899 -0.42222 -0.403381 -0.377972 -0.439425 
5.2 -6.33818 0.89672 2 4 8 14 18 20 23 24 23 20 19 14 8 4 2 -0.434934 -0.379346 -0.404811 -0.424071 -0.436712 -0.439335 -0.434293 -0.431179 -0.434293 -0.439334 -0.436712 -0.424071 -0.404811 -0.379346 -0.434934 
5.3 -6.33818 0.911757 2 4 8 15 19 21 23 25 23 21 19 15 8 4 2 -0.430681 -0.380745 -0.406343 -0.425719 -0.437343 -0.438248 -0.434073 -0.431877 -0.434073 -0.438248 -0.437343 -0.425719 -0.406343 -0.380745 -0.430681 
5.4 -6.33818 0.926894 2 4 8 15 19 21 25 27 25 21 19 15 8 4 2 -0.426696 -0.382151 -0.407967 -0.42714 -0.437797 -0.437134 -0.433889 -0.432631 -0.433889 -0.437134 -0.437798 -0.42714 -0.407967 -0.382151 -0.426696 
5.5 -6.33818 0.942063 2 4 8 16 20 22 27 28 27 22 20 16 8 4 2 -0.423015 -0.383537 -0.409676 -0.428312 -0.43808 -0.436021 -0.433742 -0.433417 -0.433742 -0.436021 -0.43808 -0.428311 -0.409676 -0.383537 -0.423015 
5.6 -6.33818 0.957203 2 4 8 16 21 24 27 29 27 24 21 16 8 4 2 -0.419673 -0.384869 -0.411463 -0.429217 -0.438199 -0.434934 -0.43363 -0.434211 -0.43363 -0.434933 -0.4382 -0.429217 -0.411463 -0.384869 -0.419673 
5.7 -6.33818 0.972269 2 4 8 16 21 25 29 29 29 25 21 16 8 4 2 -0.416708 -0.386109 -0.413322 -0.429846 -0.438164 -0.433895 -0.433552 -0.434991 -0.433552 -0.433894 -0.438164 -0.429846 -0.413322 -0.386109 -0.416708 
5.8 -6.33818 0.98723 2 4 8 16 22 27 29 31 29 27 22 16 8 4 2 -0.41416 -0.387212 -0.415245 -0.430193 -0.437984 -0.432922 -0.433505 -0.435736 -0.433506 -0.432922 -0.437985 -0.430193 -0.415245 -0.387212 -0.414161 
5.9 -6.33818 1.00207 2 4 8 16 23 28 30 33 30 28 23 16 8 4 2 -0.412068 -0.388133 -0.417227 -0.430259 -0.437671 -0.432032 -0.433488 -0.436426 -0.433488 -0.432031 -0.437672 -0.430258 -0.417227 -0.388133 -0.412068 
6 -6.33818 1.01679 2 4 8 16 23 29 33 34 33 29 23 16 8 4 2 -0.410469 -0.388823 -0.419258 -0.430049 -0.437237 -0.431234 -0.433498 -0.437044 -0.433498 -0.431234 -0.437237 -0.430049 -0.419258 -0.388823 -0.410469 
6.1 -6.33818 1.03139 2 4 8 16 24 30 34 36 34 30 25 16 8 4 2 -0.409399 -0.389235 -0.421331 -0.429577 -0.436693 -0.430537 -0.433531 -0.437576 -0.433531 -0.430537 -0.436693 -0.429577 -0.421331 -0.389236 -0.409399 
6.2 -6.33818 1.04587 2 4 8 16 26 31 35 37 35 31 26 16 8 4 2 -0.408891 -0.389324 -0.423433 -0.428859 -0.436051 -0.429944 -0.433585 -0.438008 -0.433584 -0.429944 -0.436052 -0.428859 -0.423433 -0.389324 -0.408891 
6.3 -6.33818 1.06023 2 4 8 16 26 32 37 40 37 32 26 16 8 4 2 -0.408974 -0.389046 -0.425553 -0.427919 -0.435325 -0.429454 -0.433656 -0.438331 -0.433655 -0.429454 -0.435325 -0.427919 -0.425552 -0.389046 -0.408974 
