time energy SvN bondDim localEnergy 
0 -5.06553 0.0526194 2 4 5 5 5 5 5 5 5 5 5 5 5 4 2 -0.352039 -0.334061 -0.335845 -0.335729 -0.33574 -0.335739 -0.33574 -0.335742 -0.33574 -0.335739 -0.33574 -0.335729 -0.335845 -0.334061 -0.352039 
0.1 -5.06553 0.0526202 2 4 5 5 5 5 5 5 5 5 5 5 5 4 2 -0.352039 -0.334061 -0.335845 -0.335729 -0.33574 -0.335739 -0.335741 -0.335743 -0.335741 -0.335739 -0.33574 -0.335729 -0.335845 -0.334061 -0.352039 
0.2 -5.06554 0.0526242 2 4 5 5 5 5 5 5 5 5 5 5 5 4 2 -0.352039 -0.334061 -0.335845 -0.335729 -0.33574 -0.335739 -0.335742 -0.335746 -0.335742 -0.335739 -0.33574 -0.335729 -0.335845 -0.334061 -0.352039 
0.3 -5.06556 0.0526371 2 4 5 5 5 5 5 5 5 5 5 5 5 4 2 -0.35204 -0.334062 -0.335845 -0.33573 -0.33574 -0.335738 -0.335748 -0.335759 -0.335748 -0.335738 -0.33574 -0.33573 -0.335845 -0.334062 -0.352039 
0.4 -5.06563 0.0526741 2 4 5 5 5 5 5 5 5 5 5 5 5 4 2 -0.35204 -0.334062 -0.335846 -0.33573 -0.335741 -0.335737 -0.335764 -0.335795 -0.335764 -0.335737 -0.335741 -0.33573 -0.335846 -0.334062 -0.35204 
0.5 -5.06581 0.0527755 2 4 5 5 5 5 5 5 5 5 5 5 5 4 2 -0.352041 -0.334062 -0.335846 -0.33573 -0.335741 -0.335731 -0.335807 -0.335892 -0.335807 -0.335731 -0.335741 -0.33573 -0.335846 -0.334062 -0.35204 
0.6 -5.06627 0.0530489 2 4 5 5 5 5 5 5 5 5 5 5 5 4 2 -0.352041 -0.334062 -0.335846 -0.33573 -0.335741 -0.335716 -0.335924 -0.336154 -0.335924 -0.335716 -0.335741 -0.33573 -0.335846 -0.334062 -0.35204 
0.7 -5.06748 0.053777 2 4 5 5 5 5 5 5 5 5 5 5 5 4 2 -0.352041 -0.334062 -0.335846 -0.33573 -0.335741 -0.335675 -0.336228 -0.336834 -0.336228 -0.335675 -0.335741 -0.33573 -0.335846 -0.334062 -0.35204 
0.8 -5.07043 0.0556577 2 4 5 5 5 5 5 5 5 5 5 5 5 4 2 -0.352041 -0.334062 -0.335846 -0.33573 -0.335742 -0.335568 -0.336983 -0.338488 -0.336983 -0.335568 -0.335742 -0.33573 -0.335846 -0.334062 -0.35204 
0.9 -5.07671 0.0601912 2 4 5 5 5 5 5 5 5 5 5 5 5 4 2 -0.35204 -0.334061 -0.335845 -0.335729 -0.335743 -0.335312 -0.338652 -0.341946 -0.338652 -0.335312 -0.335743 -0.335729 -0.335845 -0.334062 -0.35204 
1 -5.08731 0.0698075 2 4 5 5 5 5 5 5 5 5 5 5 5 4 2 -0.35204 -0.334061 -0.335845 -0.335728 -0.335746 -0.334772 -0.341693 -0.347537 -0.341693 -0.334772 -0.335746 -0.335728 -0.335845 -0.334061 -0.35204 
1.1 -5.10124 0.086945 2 4 5 5 5 5 4 4 4 5 5 5 5 4 2 -0.35204 -0.334061 -0.335845 -0.335726 -0.335753 -0.333821 -0.346191 -0.354371 -0.346191 -0.333821 -0.335753 -0.335726 -0.335845 -0.334061 -0.352039 
1.2 -5.11716 0.112548 2 4 5 5 5 5 4 4 4 5 5 5 5 4 2 -0.352039 -0.334061 -0.335845 -0.335723 -0.33576 -0.332459 -0.351869 -0.361651 -0.351869 -0.332459 -0.33576 -0.335723 -0.335845 -0.334061 -0.352039 
1.3 -5.13461 0.145695 2 4 5 5 5 5 4 4 4 5 5 5 5 4 2 -0.352039 -0.334061 -0.335845 -0.335717 -0.335752 -0.330919 -0.358144 -0.369653 -0.358145 -0.330919 -0.335752 -0.335717 -0.335845 -0.334061 -0.352039 
1.4 -5.15323 0.184444 2 4 5 5 5 5 4 4 4 5 5 5 5 4 2 -0.352039 -0.334061 -0.335845 -0.335708 -0.335681 -0.329736 -0.364048 -0.378995 -0.364048 -0.329736 -0.335681 -0.335708 -0.335845 -0.334061 -0.352039 
1.5 -5.17219 0.226658 2 4 5 5 5 5 4 4 4 5 5 5 5 4 2 -0.352039 -0.334062 -0.335846 -0.335695 -0.33544 -0.329653 -0.368413 -0.389891 -0.368413 -0.329653 -0.33544 -0.335695 -0.335846 -0.334062 -0.352039 
1.6 -5.19041 0.270396 2 4 5 5 5 5 4 4 4 5 5 5 5 4 2 -0.35204 -0.334062 -0.335846 -0.33568 -0.334882 -0.331221 -0.370495 -0.401955 -0.370495 -0.331221 -0.334882 -0.33568 -0.335846 -0.334062 -0.352039 
1.7 -5.20776 0.314045 2 4 5 5 5 5 5 4 5 5 5 5 5 4 2 -0.35204 -0.334062 -0.335845 -0.335665 -0.333905 -0.334528 -0.370612 -0.414448 -0.370612 -0.334528 -0.333905 -0.335665 -0.335845 -0.334062 -0.352039 
1.8 -5.22533 0.356361 2 4 5 5 5 5 5 5 5 5 5 5 5 4 2 -0.35204 -0.334062 -0.335842 -0.335643 -0.332572 -0.339326 -0.369842 -0.426674 -0.369842 -0.339326 -0.332572 -0.335643 -0.335842 -0.334062 -0.35204 
1.9 -5.244 0.396482 2 4 5 5 5 5 5 5 5 5 5 5 5 4 2 -0.352041 -0.334062 -0.335837 -0.335593 -0.331203 -0.344993 -0.369196 -0.438153 -0.369196 -0.344993 -0.331203 -0.335593 -0.335837 -0.334062 -0.35204 
2 -5.26363 0.433923 2 4 5 5 5 5 5 5 5 5 5 5 5 4 2 -0.352041 -0.334061 -0.335828 -0.335443 -0.330408 -0.350495 -0.369247 -0.448588 -0.369248 -0.350495 -0.330408 -0.335443 -0.335828 -0.334061 -0.35204 
2.1 -5.28317 0.468524 2 4 5 5 5 5 5 6 5 5 5 5 5 4 2 -0.352041 -0.334061 -0.335815 -0.335068 -0.330869 -0.354677 -0.370155 -0.457796 -0.370155 -0.354678 -0.330869 -0.335068 -0.335815 -0.334061 -0.35204 
2.2 -5.30158 0.500392 2 4 5 5 5 5 6 6 6 5 5 5 5 4 2 -0.352041 -0.334059 -0.3358 -0.334328 -0.332907 -0.357016 -0.371815 -0.465649 -0.371815 -0.357017 -0.332907 -0.334328 -0.3358 -0.33406 -0.35204 
2.3 -5.31928 0.529813 2 4 5 5 5 5 6 7 6 5 5 5 5 4 2 -0.35204 -0.334057 -0.335782 -0.333183 -0.336423 -0.358071 -0.37406 -0.472046 -0.37406 -0.358071 -0.336423 -0.333183 -0.335782 -0.334057 -0.352039 
2.4 -5.33746 0.557157 2 4 5 5 5 6 7 8 7 6 5 5 5 4 2 -0.35204 -0.334053 -0.33575 -0.331806 -0.340988 -0.358867 -0.376769 -0.476917 -0.376769 -0.358867 -0.340988 -0.331806 -0.33575 -0.334054 -0.352039 
2.5 -5.35666 0.58279 2 4 5 5 5 6 7 8 7 6 5 5 5 4 2 -0.352039 -0.334047 -0.335662 -0.330654 -0.345752 -0.360184 -0.379875 -0.480231 -0.379875 -0.360184 -0.345753 -0.330654 -0.335662 -0.334047 -0.352039 
2.6 -5.37634 0.607001 2 4 5 5 5 7 8 8 8 7 5 5 5 4 2 -0.352039 -0.334037 -0.335423 -0.330423 -0.349543 -0.36237 -0.383333 -0.482001 -0.383333 -0.36237 -0.349543 -0.330423 -0.335423 -0.334037 -0.352039 
2.7 -5.39534 0.629956 2 4 5 5 5 7 8 8 8 7 5 5 5 4 2 -0.352038 -0.334025 -0.334887 -0.331682 -0.351383 -0.365419 -0.387091 -0.482291 -0.387091 -0.365419 -0.351384 -0.331682 -0.334887 -0.334025 -0.352038 
2.8 -5.41327 0.651696 2 4 5 5 5 7 8 8 8 7 5 5 5 4 2 -0.352037 -0.334011 -0.333944 -0.334552 -0.351266 -0.369144 -0.391078 -0.481205 -0.391078 -0.369144 -0.351267 -0.334552 -0.333944 -0.334011 -0.352037 
2.9 -5.43111 0.672148 2 4 5 5 5 8 8 8 8 8 5 5 5 4 2 -0.352034 -0.333991 -0.332631 -0.338808 -0.350092 -0.37335 -0.395204 -0.478888 -0.395204 -0.37335 -0.350093 -0.338808 -0.332631 -0.333991 -0.352034 
3 -5.4499 0.691179 2 4 5 5 6 8 8 8 8 8 6 5 5 4 2 -0.35203 -0.333945 -0.331239 -0.34386 -0.348845 -0.377909 -0.399368 -0.475513 -0.399368 -0.377909 -0.348845 -0.34386 -0.331239 -0.333945 -0.352029 
3.1 -5.46968 0.708651 2 4 5 5 6 8 8 8 8 8 6 5 5 4 2 -0.352021 -0.333809 -0.330346 -0.348692 -0.348128 -0.382743 -0.403465 -0.471271 -0.403465 -0.382743 -0.348128 -0.348692 -0.330346 -0.333809 -0.352021 
3.2 -5.48946 0.724481 2 4 5 5 7 8 8 8 8 8 7 5 5 4 2 -0.35201 -0.333462 -0.330646 -0.352102 -0.348141 -0.387795 -0.407391 -0.466365 -0.407391 -0.387795 -0.348141 -0.352103 -0.330646 -0.333462 -0.352009 
3.3 -5.50815 0.738688 2 4 5 5 7 8 8 9 8 8 7 5 5 4 2 -0.351996 -0.332763 -0.332508 -0.353427 -0.348821 -0.393003 -0.411055 -0.461003 -0.411055 -0.393003 -0.348822 -0.353427 -0.332508 -0.332763 -0.351995 
3.4 -5.526 0.75142 2 4 5 5 7 8 9 10 9 8 7 5 5 4 2 -0.35198 -0.331653 -0.335869 -0.353104 -0.350027 -0.398292 -0.41438 -0.455387 -0.41438 -0.398292 -0.350027 -0.353104 -0.33587 -0.331653 -0.351979 
3.5 -5.54422 0.762959 2 4 5 6 8 8 10 10 10 8 8 6 5 4 2 -0.351952 -0.330276 -0.340346 -0.352149 -0.351664 -0.40357 -0.417303 -0.449705 -0.417303 -0.40357 -0.351664 -0.352149 -0.340346 -0.330276 -0.351951 
3.6 -5.5635 0.77369 2 4 5 6 8 8 10 11 10 8 8 6 5 4 2 -0.351876 -0.329052 -0.345139 -0.351393 -0.353702 -0.408739 -0.419783 -0.44413 -0.419783 -0.40874 -0.353702 -0.351393 -0.345139 -0.329052 -0.351875 
3.7 -5.58338 0.784059 2 4 5 7 8 9 11 12 11 9 8 7 5 4 2 -0.351662 -0.328657 -0.349084 -0.351242 -0.356144 -0.4137 -0.421797 -0.438812 -0.421797 -0.4137 -0.356144 -0.351243 -0.349084 -0.328657 -0.351661 
3.8 -5.6027 0.794514 2 4 5 7 8 9 11 13 11 9 8 7 5 4 2 -0.351169 -0.329693 -0.35111 -0.351748 -0.358995 -0.418358 -0.42334 -0.433874 -0.42334 -0.418358 -0.358995 -0.351748 -0.351111 -0.329693 -0.351168 
3.9 -5.62086 0.805447 2 4 5 8 8 9 12 13 12 10 8 8 5 4 2 -0.350277 -0.332324 -0.351042 -0.352776 -0.362249 -0.422627 -0.424428 -0.429414 -0.424428 -0.422627 -0.362249 -0.352776 -0.351042 -0.332324 -0.350277 
4 -5.63876 0.817148 2 4 6 8 8 10 13 14 13 10 8 8 6 4 2 -0.349012 -0.33635 -0.349689 -0.354182 -0.365873 -0.426434 -0.425089 -0.425501 -0.425089 -0.426434 -0.365873 -0.354182 -0.34969 -0.33635 -0.349012 
4.1 -5.65756 0.829784 2 4 6 8 8 10 13 14 13 10 8 8 6 4 2 -0.34764 -0.341215 -0.348044 -0.355891 -0.369817 -0.429719 -0.425366 -0.422177 -0.425366 -0.429719 -0.369817 -0.355891 -0.348045 -0.341215 -0.34764 
4.2 -5.67758 0.8434 2 4 7 8 9 11 14 15 14 11 8 8 7 4 2 -0.346725 -0.345932 -0.346745 -0.357887 -0.374019 -0.432438 -0.425311 -0.419462 -0.425311 -0.432438 -0.374019 -0.357888 -0.346745 -0.345932 -0.346725 
4.3 -5.69813 0.857945 2 4 7 8 9 12 15 16 15 12 9 8 7 4 2 -0.346956 -0.349283 -0.34602 -0.360181 -0.378403 -0.434565 -0.424983 -0.417352 -0.424983 -0.434565 -0.378403 -0.360181 -0.34602 -0.349283 -0.346956 
4.4 -5.71825 0.87331 2 4 8 8 9 13 16 16 16 13 9 8 8 4 2 -0.348704 -0.350486 -0.345815 -0.362782 -0.382893 -0.436088 -0.424443 -0.415824 -0.424443 -0.436089 -0.382893 -0.362783 -0.345816 -0.350487 -0.348704 
4.5 -5.73808 0.889371 2 4 8 8 10 13 16 17 16 13 10 8 8 4 2 -0.351932 -0.349841 -0.345983 -0.365686 -0.387408 -0.437017 -0.423752 -0.414843 -0.423752 -0.437017 -0.387408 -0.365686 -0.345984 -0.349842 -0.351932 
4.6 -5.75873 0.906024 2 4 8 9 10 14 17 18 17 14 10 9 8 4 2 -0.356379 -0.348311 -0.346418 -0.36887 -0.391868 -0.437373 -0.422967 -0.414361 -0.422967 -0.437373 -0.391868 -0.36887 -0.346419 -0.348311 -0.356379 
4.7 -5.78039 0.923209 2 4 8 9 11 14 17 18 17 14 11 9 8 4 2 -0.361378 -0.346737 -0.347086 -0.372298 -0.396196 -0.437194 -0.422142 -0.414321 -0.422142 -0.437194 -0.396196 -0.372298 -0.347087 -0.346738 -0.361378 
4.8 -5.80122 0.940911 2 4 8 9 12 15 18 19 18 15 12 9 8 4 2 -0.365632 -0.345552 -0.347996 -0.375923 -0.400321 -0.436532 -0.421321 -0.414666 -0.421322 -0.436532 -0.400322 -0.375922 -0.347997 -0.345553 -0.365632 
4.9 -5.81806 0.959142 2 4 8 10 13 16 19 21 19 16 13 10 8 4 2 -0.36751 -0.344822 -0.34917 -0.379692 -0.404178 -0.435448 -0.420543 -0.415332 -0.420544 -0.435447 -0.404179 -0.379691 -0.349171 -0.344823 -0.36751 
5 -5.82895 0.977921 2 4 8 10 13 17 19 21 19 17 13 10 8 4 2 -0.366209 -0.344412 -0.350621 -0.383549 -0.407711 -0.43401 -0.419836 -0.416258 -0.419837 -0.434008 -0.407713 -0.383548 -0.350622 -0.344412 -0.366209 
5.1 -5.83477 0.997243 2 4 8 10 14 18 21 22 21 18 14 10 8 4 2 -0.362352 -0.34417 -0.352347 -0.387434 -0.410875 -0.432292 -0.41922 -0.417387 -0.419222 -0.43229 -0.410878 -0.387432 -0.352348 -0.34417 -0.362352 
5.2 -5.8375 1.01705 2 4 8 11 14 18 22 23 22 18 14 11 8 4 2 -0.357066 -0.344019 -0.35433 -0.391284 -0.413637 -0.430372 -0.418709 -0.418662 -0.418711 -0.430369 -0.41364 -0.391282 -0.354332 -0.344019 -0.357067 
5.3 -5.83868 1.03725 2 4 8 12 15 19 23 25 23 19 15 12 8 4 2 -0.351192 -0.343947 -0.356544 -0.395037 -0.415973 -0.428326 -0.418306 -0.420034 -0.418308 -0.428322 -0.415978 -0.395034 -0.356547 -0.343947 -0.351192 
5.4 -5.83918 1.05768 2 4 8 13 16 20 24 26 24 19 16 13 8 4 2 -0.345189 -0.343972 -0.358957 -0.39863 -0.417875 -0.426226 -0.418011 -0.421455 -0.418014 -0.426221 -0.417881 -0.398625 -0.35896 -0.343971 -0.345189 
5.5 -5.83937 1.07815 2 4 8 13 17 21 25 26 25 21 17 13 8 4 2 -0.339286 -0.344117 -0.361535 -0.402002 -0.419344 -0.424142 -0.417817 -0.422886 -0.417821 -0.424136 -0.41935 -0.401996 -0.361539 -0.344116 -0.339287 
5.6 -5.83945 1.09849 2 4 8 14 18 22 26 28 26 22 18 14 8 4 2 -0.333598 -0.344402 -0.364243 -0.405095 -0.420392 -0.422133 -0.417716 -0.42429 -0.41772 -0.422127 -0.4204 -0.405088 -0.364247 -0.344402 -0.333598 
5.7 -5.83948 1.11853 2 4 8 14 18 23 26 29 26 23 18 14 8 4 2 -0.32819 -0.344836 -0.367047 -0.407857 -0.421042 -0.420254 -0.417697 -0.425635 -0.417701 -0.420246 -0.421051 -0.407848 -0.367052 -0.344835 -0.32819 
5.8 -5.83949 1.13817 2 4 8 15 19 24 28 31 28 25 19 15 8 4 2 -0.323113 -0.345415 -0.369916 -0.41024 -0.421324 -0.418546 -0.417745 -0.426893 -0.41775 -0.418538 -0.421334 -0.410231 -0.369921 -0.345414 -0.323113 
5.9 -5.8395 1.15736 2 4 8 16 19 26 29 31 29 25 19 16 8 4 2 -0.318413 -0.346121 -0.372818 -0.412207 -0.421276 -0.417041 -0.417851 -0.428041 -0.417856 -0.417033 -0.421287 -0.412197 -0.372824 -0.34612 -0.318413 
6 -5.8395 1.17611 2 4 8 16 21 27 31 33 31 27 21 16 8 4 2 -0.314137 -0.346925 -0.375726 -0.413728 -0.420939 -0.415762 -0.418002 -0.429057 -0.418007 -0.415753 -0.420951 -0.413717 -0.375733 -0.346924 -0.314137 
6.1 -5.8395 1.19448 2 4 8 16 22 27 32 35 32 27 22 16 8 4 2 -0.310336 -0.347785 -0.378614 -0.414784 -0.420358 -0.414721 -0.41819 -0.429925 -0.418194 -0.414712 -0.42037 -0.414772 -0.378621 -0.347784 -0.310336 
6.2 -5.8395 1.21259 2 4 8 16 22 29 34 37 34 29 23 16 8 4 2 -0.30706 -0.348648 -0.381457 -0.415368 -0.419576 -0.413919 -0.418405 -0.430629 -0.41841 -0.41391 -0.419589 -0.415355 -0.381465 -0.348647 -0.307061 
6.3 -5.8395 1.23051 2 4 8 16 24 30 36 38 37 30 24 16 8 4 2 -0.304365 -0.349455 -0.384235 -0.415482 -0.418639 -0.413351 -0.418643 -0.431158 -0.418647 -0.413343 -0.418651 -0.415469 -0.384242 -0.349454 -0.304365 
6.4 -5.8395 1.24833 2 4 8 16 25 32 37 40 38 32 25 16 8 4 2 -0.302302 -0.350137 -0.386926 -0.415144 -0.417585 -0.413004 -0.418899 -0.431504 -0.418903 -0.412996 -0.417597 -0.415131 -0.386933 -0.350136 -0.302302 
6.5 -5.8395 1.26608 2 4 8 16 26 33 40 42 40 33 26 16 8 4 2 -0.300924 -0.350623 -0.389511 -0.41438 -0.416453 -0.412857 -0.419169 -0.431662 -0.419172 -0.412851 -0.416464 -0.414368 -0.389517 -0.350623 -0.300924 
6.6 -5.8395 1.28377 2 4 8 16 26 35 42 44 42 35 26 16 8 4 2 -0.30028 -0.350841 -0.391971 -0.413228 -0.415272 -0.41289 -0.419451 -0.431631 -0.419453 -0.412885 -0.415282 -0.413217 -0.391977 -0.350841 -0.30028 
6.7 -5.8395 1.30136 2 4 8 16 27 37 44 45 44 37 27 16 8 4 2 -0.300415 -0.350719 -0.39429 -0.411734 -0.414069 -0.413074 -0.41974 -0.431414 -0.419742 -0.41307 -0.414078 -0.411724 -0.394295 -0.35072 -0.300415 
6.8 -5.8395 1.31879 2 4 8 16 27 39 47 48 46 39 27 16 8 4 2 -0.301368 -0.350188 -0.396451 -0.409952 -0.412865 -0.413382 -0.420034 -0.431018 -0.420035 -0.41338 -0.412872 -0.409943 -0.396454 -0.35019 -0.301368 
6.9 -5.8395 1.33599 2 4 8 16 29 40 48 50 48 40 29 16 8 4 2 -0.303172 -0.349186 -0.398437 -0.40794 -0.411674 -0.413785 -0.420328 -0.430453 -0.420328 -0.413785 -0.411679 -0.407933 -0.39844 -0.349188 -0.303171 
