time energy SvN bondDim localEnergy 
0 -6.17853 0.190629 2 4 8 10 10 10 10 10 10 10 10 10 8 4 2 -0.489368 -0.373632 -0.411748 -0.400247 -0.404135 -0.403018 -0.403636 -0.403641 -0.403638 -0.403012 -0.404155 -0.400197 -0.411968 -0.373186 -0.492949 
0.1 -6.17837 0.190607 2 4 8 10 10 10 10 10 10 10 10 10 8 4 2 -0.489351 -0.373642 -0.411727 -0.400237 -0.404122 -0.403006 -0.403624 -0.40363 -0.403626 -0.403 -0.404142 -0.400186 -0.411947 -0.373197 -0.492932 
0.2 -6.1779 0.190547 2 4 8 10 10 10 10 10 10 10 10 10 8 4 2 -0.489298 -0.373672 -0.411665 -0.400206 -0.404083 -0.402971 -0.403591 -0.4036 -0.403593 -0.402965 -0.404103 -0.400156 -0.411884 -0.373227 -0.49288 
0.3 -6.17717 0.190463 2 4 8 10 10 10 10 10 10 10 10 10 8 4 2 -0.489214 -0.373722 -0.411567 -0.400158 -0.404024 -0.402919 -0.403543 -0.403556 -0.403545 -0.402913 -0.404043 -0.400108 -0.411786 -0.373278 -0.492797 
0.4 -6.17627 0.190372 2 4 8 10 10 10 10 10 10 10 10 10 8 4 2 -0.489101 -0.373789 -0.411441 -0.400099 -0.403948 -0.402854 -0.403486 -0.403508 -0.403488 -0.402848 -0.403968 -0.400049 -0.411659 -0.373347 -0.492685 
0.5 -6.17528 0.190293 2 4 8 10 10 10 10 10 10 10 10 10 8 4 2 -0.488964 -0.373874 -0.411295 -0.400033 -0.403865 -0.402784 -0.40343 -0.403465 -0.403432 -0.402778 -0.403884 -0.399984 -0.411513 -0.373433 -0.49255 
0.6 -6.17431 0.190246 2 4 8 10 10 10 10 10 10 10 10 10 8 4 2 -0.48881 -0.373973 -0.411142 -0.399968 -0.403781 -0.402717 -0.403383 -0.403436 -0.403385 -0.402711 -0.4038 -0.399919 -0.411358 -0.373534 -0.492398 
0.7 -6.17346 0.190251 2 4 8 10 10 10 10 10 10 10 10 10 8 4 2 -0.488645 -0.374084 -0.410992 -0.39991 -0.403703 -0.402661 -0.403353 -0.40343 -0.403355 -0.402655 -0.403722 -0.399862 -0.411206 -0.373646 -0.492235 
0.8 -6.17281 0.190325 2 4 8 10 10 10 10 10 10 10 10 10 8 4 2 -0.488476 -0.374204 -0.410855 -0.399865 -0.403641 -0.402622 -0.403349 -0.403455 -0.403351 -0.402616 -0.403659 -0.399817 -0.411068 -0.373766 -0.492068 
0.9 -6.17245 0.190485 2 4 8 10 10 10 10 10 10 10 10 10 8 4 2 -0.488311 -0.374327 -0.410742 -0.399838 -0.403599 -0.402607 -0.403377 -0.403519 -0.403379 -0.402601 -0.403617 -0.399791 -0.410954 -0.373891 -0.491903 
1 -6.17244 0.190741 2 4 8 10 10 10 10 10 10 10 10 10 8 4 2 -0.488156 -0.374451 -0.41066 -0.399833 -0.403582 -0.40262 -0.40344 -0.403624 -0.403442 -0.402614 -0.403599 -0.399786 -0.41087 -0.374015 -0.491749 
1.1 -6.17281 0.191102 2 4 8 10 10 10 10 10 10 10 10 10 8 4 2 -0.488017 -0.37457 -0.410614 -0.399852 -0.403592 -0.402664 -0.403541 -0.403774 -0.403543 -0.402657 -0.40361 -0.399805 -0.410823 -0.374133 -0.491611 
1.2 -6.17356 0.191572 2 4 8 10 10 10 10 10 10 10 10 10 8 4 2 -0.4879 -0.374678 -0.410607 -0.399895 -0.403631 -0.402738 -0.403681 -0.403968 -0.403683 -0.402731 -0.403648 -0.399848 -0.410815 -0.37424 -0.491494 
1.3 -6.17468 0.192149 2 4 8 10 10 10 10 10 10 10 10 10 8 4 2 -0.48781 -0.374771 -0.410638 -0.39996 -0.403698 -0.402841 -0.403857 -0.404204 -0.403859 -0.402834 -0.403715 -0.399913 -0.410846 -0.374332 -0.491403 
1.4 -6.17614 0.19283 2 4 8 10 10 10 10 10 10 10 10 10 8 4 2 -0.48775 -0.374844 -0.410706 -0.400045 -0.403789 -0.40297 -0.404066 -0.404478 -0.404068 -0.402962 -0.403805 -0.399997 -0.410913 -0.374404 -0.491342 
1.5 -6.17788 0.193608 2 4 8 10 10 10 10 10 10 10 10 10 8 4 2 -0.487721 -0.374893 -0.410804 -0.400144 -0.403901 -0.403121 -0.404303 -0.404785 -0.404305 -0.403113 -0.403917 -0.400096 -0.411012 -0.374452 -0.491312 
1.6 -6.17983 0.194476 2 4 8 10 10 10 10 10 10 10 10 10 8 4 2 -0.487725 -0.374915 -0.410926 -0.400252 -0.404029 -0.403288 -0.404562 -0.40512 -0.404565 -0.40328 -0.404044 -0.400203 -0.411134 -0.374474 -0.491314 
1.7 -6.18193 0.195422 2 4 8 10 10 10 10 10 10 10 10 10 8 4 2 -0.487761 -0.37491 -0.411064 -0.400364 -0.404167 -0.403467 -0.404839 -0.405476 -0.404841 -0.403459 -0.404182 -0.400315 -0.411272 -0.374467 -0.491348 
1.8 -6.18411 0.196439 2 4 8 10 10 10 10 10 10 10 10 10 8 4 2 -0.487826 -0.374877 -0.411208 -0.400475 -0.404311 -0.403652 -0.405127 -0.40585 -0.40513 -0.403644 -0.404326 -0.400425 -0.411418 -0.374434 -0.491412 
1.9 -6.18632 0.197519 2 4 8 10 10 10 10 10 10 10 10 10 8 4 2 -0.487919 -0.374818 -0.411352 -0.400579 -0.404457 -0.403839 -0.405423 -0.406235 -0.405427 -0.403831 -0.404471 -0.400528 -0.411562 -0.374375 -0.491504 
2 -6.18851 0.198655 2 4 8 10 10 10 10 10 10 10 10 10 8 4 2 -0.488036 -0.374736 -0.411486 -0.400675 -0.404601 -0.404026 -0.405725 -0.40663 -0.405728 -0.404016 -0.404614 -0.400623 -0.411697 -0.374293 -0.491619 
2.1 -6.19065 0.199844 2 4 8 10 10 10 10 10 10 10 10 10 8 4 2 -0.488172 -0.374638 -0.411605 -0.400759 -0.404741 -0.40421 -0.40603 -0.407034 -0.406034 -0.4042 -0.404754 -0.400706 -0.411818 -0.374195 -0.491754 
2.2 -6.19274 0.201085 2 4 8 10 10 10 10 10 10 10 10 10 8 4 2 -0.488323 -0.374529 -0.411704 -0.400831 -0.404878 -0.404391 -0.40634 -0.407447 -0.406344 -0.404381 -0.40489 -0.400778 -0.411918 -0.374086 -0.491904 
2.3 -6.1948 0.202383 2 4 8 10 10 10 10 10 10 10 10 10 8 4 2 -0.488483 -0.374416 -0.411781 -0.400892 -0.40501 -0.404572 -0.406656 -0.407872 -0.40666 -0.404561 -0.405022 -0.400838 -0.411996 -0.373973 -0.492064 
2.4 -6.19684 0.203741 2 4 8 10 11 10 11 10 11 10 11 10 8 4 2 -0.48865 -0.374307 -0.411836 -0.400945 -0.405142 -0.404754 -0.406982 -0.408312 -0.406986 -0.404742 -0.405153 -0.40089 -0.412051 -0.373865 -0.49223 
2.5 -6.19893 0.205171 2 4 8 10 11 11 11 10 11 11 11 10 8 4 2 -0.488817 -0.37421 -0.411871 -0.400992 -0.405275 -0.404941 -0.407322 -0.408772 -0.407326 -0.404929 -0.405285 -0.400937 -0.412086 -0.373768 -0.492398 
2.6 -6.20111 0.206683 2 4 8 10 11 11 11 11 11 11 11 10 8 4 2 -0.488984 -0.374131 -0.411889 -0.401039 -0.405413 -0.405139 -0.407681 -0.409257 -0.407686 -0.405126 -0.405423 -0.400983 -0.412104 -0.373688 -0.492565 
2.7 -6.20344 0.208292 2 4 8 10 11 11 11 11 11 11 11 10 8 4 2 -0.489145 -0.374075 -0.411898 -0.401089 -0.40556 -0.405352 -0.408065 -0.409773 -0.40807 -0.405338 -0.405569 -0.401033 -0.412112 -0.373632 -0.492727 
2.8 -6.20598 0.210012 2 4 8 10 11 11 11 11 11 11 11 10 8 4 2 -0.489301 -0.374046 -0.411904 -0.401146 -0.40572 -0.405584 -0.408478 -0.410325 -0.408483 -0.40557 -0.405728 -0.40109 -0.412118 -0.373602 -0.492884 
2.9 -6.20878 0.211859 2 4 8 10 11 11 11 11 11 11 11 10 8 4 2 -0.48945 -0.374044 -0.411916 -0.401214 -0.405896 -0.40584 -0.408926 -0.410918 -0.408931 -0.405825 -0.405902 -0.401157 -0.412128 -0.373599 -0.493034 
3 -6.21189 0.213851 2 4 8 10 11 11 11 11 11 11 11 10 8 4 2 -0.489593 -0.374069 -0.411942 -0.401296 -0.406091 -0.406124 -0.409411 -0.411555 -0.409417 -0.406108 -0.406096 -0.401239 -0.412153 -0.373623 -0.493177 
3.1 -6.21535 0.216002 2 4 8 10 11 11 11 11 11 11 11 10 8 4 2 -0.48973 -0.374117 -0.411991 -0.401394 -0.406307 -0.406438 -0.409937 -0.41224 -0.409943 -0.406421 -0.406311 -0.401336 -0.4122 -0.37367 -0.493314 
3.2 -6.21917 0.218329 2 4 8 10 11 11 11 11 11 11 11 10 8 4 2 -0.489863 -0.374185 -0.412069 -0.401508 -0.406546 -0.406785 -0.410505 -0.412973 -0.410511 -0.406766 -0.40655 -0.401449 -0.412278 -0.373736 -0.493447 
3.3 -6.22337 0.220847 2 4 8 10 11 11 11 11 11 11 11 10 8 4 2 -0.489993 -0.374264 -0.412184 -0.40164 -0.406809 -0.407164 -0.411116 -0.413755 -0.411122 -0.407145 -0.406812 -0.40158 -0.412391 -0.373815 -0.493577 
3.4 -6.22795 0.223568 2 4 8 10 11 11 11 11 11 11 11 10 8 4 2 -0.490124 -0.37435 -0.41234 -0.401789 -0.407098 -0.407578 -0.411769 -0.414586 -0.411776 -0.407557 -0.407099 -0.401728 -0.412545 -0.373899 -0.493708 
3.5 -6.23289 0.226506 2 4 8 10 11 11 11 11 11 11 11 10 8 4 2 -0.490257 -0.374435 -0.412537 -0.401956 -0.407413 -0.408025 -0.412463 -0.415462 -0.412471 -0.408004 -0.407413 -0.401893 -0.412741 -0.373983 -0.49384 
3.6 -6.2382 0.22967 2 4 8 10 11 11 11 11 11 11 11 10 8 4 2 -0.490394 -0.374514 -0.412777 -0.402139 -0.407754 -0.408506 -0.413197 -0.416382 -0.413205 -0.408484 -0.407752 -0.402074 -0.412979 -0.374061 -0.493976 
3.7 -6.24384 0.233069 2 4 8 10 11 11 11 11 11 11 11 10 8 4 2 -0.490538 -0.374582 -0.413057 -0.40234 -0.408123 -0.409021 -0.413969 -0.417341 -0.413977 -0.408997 -0.40812 -0.402274 -0.413258 -0.374128 -0.494118 
3.8 -6.24982 0.236711 2 4 8 10 11 11 11 11 11 11 11 10 8 4 2 -0.490689 -0.374636 -0.413372 -0.40256 -0.408521 -0.40957 -0.414776 -0.418337 -0.414784 -0.409544 -0.408516 -0.402492 -0.413573 -0.374181 -0.494267 
3.9 -6.25611 0.240599 2 4 8 10 11 11 11 11 11 11 11 10 8 4 2 -0.490849 -0.374677 -0.413717 -0.402801 -0.408949 -0.410152 -0.415614 -0.419364 -0.415624 -0.410125 -0.408943 -0.40273 -0.413918 -0.374222 -0.494425 
4 -6.26272 0.244737 2 4 8 10 11 11 11 12 11 11 11 10 8 4 2 -0.49102 -0.374707 -0.414086 -0.403065 -0.409411 -0.410768 -0.416483 -0.420417 -0.416493 -0.41074 -0.409403 -0.402992 -0.414287 -0.37425 -0.494593 
4.1 -6.26963 0.249126 2 4 8 10 12 12 12 12 12 12 12 10 8 4 2 -0.491202 -0.374728 -0.414473 -0.403355 -0.409909 -0.411418 -0.417378 -0.421491 -0.417389 -0.411389 -0.409899 -0.403279 -0.414673 -0.374271 -0.494773 
4.2 -6.27685 0.253763 2 4 8 11 12 12 12 12 12 12 12 11 8 4 2 -0.491397 -0.374746 -0.41487 -0.403675 -0.410446 -0.412103 -0.418297 -0.42258 -0.418308 -0.412073 -0.410433 -0.403596 -0.415071 -0.374288 -0.494966 
4.3 -6.28438 0.258644 2 4 8 11 12 12 12 12 12 12 12 11 8 4 2 -0.491607 -0.374768 -0.415273 -0.404026 -0.411024 -0.412822 -0.419236 -0.423676 -0.419248 -0.412791 -0.411009 -0.403944 -0.415473 -0.374308 -0.495173 
4.4 -6.29223 0.263764 2 4 8 11 13 12 12 12 12 12 13 11 8 4 2 -0.491833 -0.374798 -0.415678 -0.404411 -0.411646 -0.413576 -0.420193 -0.424773 -0.420206 -0.413543 -0.411628 -0.404327 -0.415878 -0.374337 -0.495397 
4.5 -6.3004 0.269114 2 4 8 11 13 12 13 13 13 12 13 11 8 4 2 -0.49208 -0.374843 -0.416085 -0.404832 -0.412312 -0.414364 -0.421163 -0.425865 -0.421176 -0.41433 -0.412293 -0.404745 -0.416284 -0.374381 -0.495642 
4.6 -6.30889 0.274683 2 4 8 11 13 13 13 13 13 13 13 11 8 4 2 -0.492351 -0.374908 -0.416493 -0.40529 -0.413025 -0.415184 -0.422142 -0.426943 -0.422156 -0.415149 -0.413003 -0.4052 -0.416691 -0.374444 -0.49591 
4.7 -6.31771 0.280459 2 4 8 11 13 13 13 13 13 13 13 11 8 4 2 -0.492651 -0.374996 -0.416906 -0.405783 -0.413782 -0.416035 -0.423126 -0.428002 -0.42314 -0.415999 -0.413759 -0.40569 -0.417102 -0.37453 -0.496207 
4.8 -6.32685 0.286428 2 4 8 11 13 13 13 13 13 13 13 11 8 4 2 -0.492985 -0.375108 -0.417328 -0.406311 -0.414583 -0.416915 -0.42411 -0.429032 -0.424125 -0.416877 -0.414558 -0.406216 -0.417523 -0.374639 -0.496538 
4.9 -6.3363 0.292575 2 4 8 11 13 13 13 13 13 13 13 11 8 4 2 -0.493359 -0.375245 -0.417766 -0.406872 -0.415423 -0.41782 -0.425089 -0.430029 -0.425105 -0.417782 -0.415398 -0.406774 -0.417958 -0.374773 -0.49691 
5 -6.34606 0.298885 2 4 8 11 13 13 13 13 13 13 13 11 8 4 2 -0.49378 -0.375404 -0.418228 -0.407463 -0.4163 -0.418747 -0.42606 -0.430985 -0.426076 -0.418709 -0.416273 -0.407363 -0.418417 -0.374929 -0.497329 
5.1 -6.35611 0.305339 2 4 8 11 13 13 13 13 13 13 13 11 8 4 2 -0.494256 -0.375581 -0.418721 -0.408081 -0.417207 -0.419693 -0.427017 -0.431895 -0.427033 -0.419654 -0.41718 -0.407978 -0.418908 -0.375103 -0.497802 
5.2 -6.36642 0.31192 2 4 8 11 13 13 13 13 13 13 13 11 8 4 2 -0.494794 -0.375773 -0.419254 -0.408723 -0.41814 -0.420653 -0.427955 -0.432753 -0.427972 -0.420614 -0.418112 -0.408618 -0.419438 -0.37529 -0.498336 
5.3 -6.37699 0.318613 2 4 8 11 13 13 13 13 13 13 13 11 8 4 2 -0.4954 -0.375972 -0.419834 -0.409386 -0.419091 -0.421622 -0.428872 -0.433557 -0.428889 -0.421583 -0.419063 -0.409279 -0.420016 -0.375485 -0.498939 
5.4 -6.38778 0.325398 2 4 8 11 13 13 13 13 13 13 13 11 8 4 2 -0.496082 -0.376174 -0.420469 -0.410066 -0.420054 -0.422596 -0.429763 -0.434301 -0.42978 -0.422557 -0.420028 -0.409958 -0.420648 -0.375683 -0.499617 
5.5 -6.39877 0.33226 2 4 8 11 13 13 13 13 13 13 13 11 8 4 2 -0.496846 -0.376372 -0.421165 -0.410763 -0.421025 -0.423569 -0.430626 -0.434985 -0.430643 -0.423531 -0.420999 -0.410652 -0.421342 -0.375875 -0.500378 
5.6 -6.40994 0.339182 2 4 8 11 13 13 13 13 13 13 13 11 8 4 2 -0.497698 -0.37656 -0.421925 -0.411471 -0.421997 -0.424536 -0.431457 -0.435606 -0.431474 -0.424499 -0.421972 -0.411359 -0.4221 -0.376058 -0.501225 
5.7 -6.42126 0.346149 2 4 8 11 13 13 13 13 13 13 13 11 8 4 2 -0.498643 -0.376733 -0.422752 -0.41219 -0.422965 -0.425492 -0.432256 -0.436165 -0.432273 -0.425456 -0.422942 -0.412076 -0.422926 -0.376226 -0.502164 
5.8 -6.43271 0.353146 2 4 8 11 13 13 13 13 13 13 13 11 8 4 2 -0.499684 -0.376887 -0.423648 -0.412917 -0.423925 -0.426431 -0.43302 -0.436662 -0.433036 -0.426397 -0.423904 -0.412801 -0.423822 -0.376373 -0.5032 
5.9 -6.44426 0.36016 2 4 8 11 13 13 13 13 13 13 13 11 8 4 2 -0.500825 -0.377017 -0.424613 -0.413648 -0.424875 -0.427348 -0.433749 -0.437098 -0.433764 -0.427316 -0.424856 -0.41353 -0.424786 -0.376497 -0.504335 
6 -6.45588 0.36718 2 4 8 11 13 13 13 13 13 13 13 11 8 4 2 -0.502068 -0.37712 -0.425644 -0.414382 -0.425811 -0.428239 -0.434441 -0.437475 -0.434456 -0.428208 -0.425795 -0.414262 -0.425818 -0.376594 -0.505571 
6.1 -6.46756 0.374193 2 4 8 11 13 13 13 13 13 13 13 11 8 4 2 -0.503414 -0.377194 -0.426739 -0.415114 -0.426733 -0.429098 -0.435096 -0.437797 -0.43511 -0.429069 -0.42672 -0.414992 -0.426915 -0.376662 -0.50691 
6.2 -6.47927 0.381192 2 4 8 11 13 13 13 13 13 13 13 11 8 4 2 -0.504865 -0.377237 -0.427894 -0.41584 -0.42764 -0.429921 -0.435713 -0.438067 -0.435727 -0.429894 -0.42763 -0.415716 -0.428073 -0.376698 -0.508353 
6.3 -6.49097 0.388168 2 4 8 11 13 13 13 13 13 13 13 11 8 4 2 -0.506419 -0.377247 -0.429106 -0.416556 -0.428531 -0.430703 -0.436294 -0.438289 -0.436307 -0.43068 -0.428524 -0.41643 -0.429287 -0.376701 -0.509899 
6.4 -6.50265 0.395115 2 4 8 11 13 14 13 14 13 14 13 11 8 4 2 -0.508078 -0.377222 -0.430368 -0.417257 -0.429407 -0.431443 -0.436837 -0.438468 -0.436849 -0.431421 -0.429404 -0.41713 -0.430552 -0.37667 -0.511549 
6.5 -6.51428 0.402027 2 4 8 11 13 14 14 14 14 14 13 11 8 4 2 -0.509839 -0.377161 -0.431675 -0.417938 -0.430268 -0.432136 -0.437342 -0.438608 -0.437354 -0.432116 -0.430269 -0.417809 -0.431864 -0.376602 -0.5133 
6.6 -6.52583 0.4089 2 4 8 11 13 14 14 14 14 14 13 11 8 4 2 -0.5117 -0.377063 -0.433022 -0.418594 -0.431115 -0.43278 -0.437811 -0.438714 -0.437823 -0.432762 -0.431121 -0.418463 -0.433216 -0.376497 -0.515152 
6.7 -6.53728 0.41573 2 4 8 11 13 14 14 14 14 14 13 11 8 4 2 -0.513661 -0.376925 -0.434403 -0.419218 -0.43195 -0.433373 -0.438244 -0.43879 -0.438254 -0.433358 -0.43196 -0.419086 -0.434602 -0.376352 -0.517103 
6.8 -6.54859 0.422515 2 4 8 11 13 14 14 14 14 14 13 11 8 4 2 -0.515717 -0.376746 -0.435812 -0.419806 -0.432773 -0.433915 -0.438641 -0.438841 -0.438651 -0.433901 -0.432788 -0.419673 -0.436017 -0.376166 -0.519149 
6.9 -6.55976 0.429253 2 4 8 11 13 14 14 14 14 14 13 11 8 4 2 -0.517866 -0.376523 -0.437244 -0.420353 -0.433586 -0.434405 -0.439003 -0.438871 -0.439013 -0.434392 -0.433605 -0.420219 -0.437455 -0.375936 -0.521287 
7 -6.57074 0.435943 2 4 8 12 13 14 14 14 14 14 13 12 8 4 2 -0.520104 -0.376254 -0.438693 -0.420854 -0.434387 -0.434842 -0.439333 -0.438883 -0.439342 -0.43483 -0.434411 -0.420719 -0.438911 -0.375659 -0.523515 
7.1 -6.58151 0.442584 2 4 8 12 14 14 14 14 14 14 14 12 8 4 2 -0.522427 -0.375937 -0.440154 -0.421305 -0.435179 -0.435227 -0.43963 -0.438882 -0.439638 -0.435215 -0.435208 -0.42117 -0.44038 -0.375334 -0.525827 
7.2 -6.59206 0.449176 2 4 8 12 14 14 14 14 14 14 14 12 8 4 2 -0.52483 -0.375567 -0.441624 -0.421704 -0.435961 -0.43556 -0.439898 -0.438868 -0.439906 -0.435549 -0.435995 -0.421568 -0.441858 -0.374957 -0.528219 
7.3 -6.60237 0.455717 2 4 8 12 14 14 15 15 15 14 14 12 8 4 2 -0.527307 -0.375143 -0.443097 -0.422047 -0.436732 -0.435843 -0.440138 -0.438846 -0.440145 -0.435832 -0.436771 -0.421911 -0.44334 -0.374526 -0.530686 
7.4 -6.6124 0.462209 2 4 8 12 14 15 15 15 15 15 14 12 8 4 2 -0.529852 -0.374662 -0.444572 -0.422334 -0.437493 -0.436077 -0.440353 -0.438815 -0.44036 -0.436065 -0.437537 -0.422198 -0.444824 -0.374038 -0.53322 
7.5 -6.62215 0.46865 2 4 8 13 14 15 16 15 16 15 14 13 8 4 2 -0.532459 -0.374121 -0.446044 -0.422563 -0.438241 -0.436263 -0.440545 -0.438778 -0.440552 -0.43625 -0.43829 -0.422427 -0.446306 -0.37349 -0.535816 
7.6 -6.63159 0.475041 2 4 8 13 15 15 16 15 16 15 15 13 8 4 2 -0.535119 -0.373519 -0.447512 -0.422733 -0.438978 -0.436402 -0.440719 -0.438735 -0.440725 -0.436388 -0.439031 -0.422597 -0.447784 -0.37288 -0.538466 
7.7 -6.64071 0.481384 2 4 8 13 15 16 17 16 17 16 15 13 8 4 2 -0.537825 -0.372853 -0.448975 -0.422844 -0.439701 -0.436496 -0.440876 -0.438686 -0.440882 -0.43648 -0.439759 -0.422708 -0.449257 -0.372207 -0.541162 
7.8 -6.6495 0.487677 2 4 8 13 15 17 17 17 17 17 15 13 8 4 2 -0.540568 -0.372122 -0.450431 -0.422896 -0.44041 -0.436546 -0.44102 -0.43863 -0.441027 -0.436528 -0.440473 -0.42276 -0.450724 -0.371469 -0.543896 
7.9 -6.65794 0.493922 2 4 8 13 15 17 18 17 18 17 15 13 8 4 2 -0.54334 -0.371325 -0.45188 -0.422889 -0.441104 -0.436553 -0.441155 -0.438568 -0.441162 -0.436533 -0.441171 -0.422753 -0.452184 -0.370665 -0.546658 
8 -6.66603 0.50012 2 4 8 13 15 17 18 17 18 17 15 13 8 4 2 -0.546131 -0.370463 -0.453323 -0.422824 -0.441783 -0.436517 -0.441285 -0.438498 -0.441292 -0.436495 -0.441854 -0.422687 -0.453638 -0.369797 -0.549439 
8.1 -6.67375 0.506272 2 4 8 14 16 17 19 17 19 17 16 14 8 4 2 -0.548931 -0.369537 -0.45476 -0.4227 -0.442447 -0.43644 -0.441411 -0.438419 -0.441419 -0.436416 -0.442522 -0.422563 -0.455086 -0.368864 -0.552231 
8.2 -6.68109 0.51238 2 4 8 14 16 17 19 18 19 17 16 14 8 4 2 -0.551732 -0.368547 -0.456192 -0.422517 -0.443095 -0.436323 -0.441538 -0.438332 -0.441546 -0.436296 -0.443174 -0.422379 -0.456529 -0.367868 -0.555024 
8.3 -6.68806 0.518445 2 4 8 14 16 18 20 19 20 18 16 14 8 4 2 -0.554525 -0.367497 -0.45762 -0.422276 -0.443729 -0.436165 -0.441668 -0.438234 -0.441677 -0.436135 -0.443811 -0.422136 -0.457968 -0.366812 -0.557809 
8.4 -6.69465 0.524469 2 4 8 14 16 18 20 20 20 18 16 14 8 4 2 -0.557301 -0.366387 -0.459047 -0.421974 -0.444349 -0.435968 -0.441803 -0.438124 -0.441813 -0.435936 -0.444435 -0.421832 -0.459406 -0.365697 -0.560578 
8.5 -6.70086 0.530454 2 4 8 14 17 20 20 20 20 20 17 14 8 4 2 -0.560053 -0.365223 -0.460475 -0.421612 -0.444956 -0.435732 -0.441946 -0.438002 -0.441958 -0.435697 -0.445045 -0.421467 -0.460844 -0.364528 -0.563323 
8.6 -6.70669 0.536401 2 4 8 14 17 20 20 21 20 20 17 14 8 4 2 -0.562772 -0.364008 -0.461905 -0.421187 -0.445553 -0.435457 -0.442098 -0.437867 -0.442112 -0.43542 -0.445645 -0.421039 -0.462284 -0.363307 -0.566036 
8.7 -6.71215 0.542314 2 4 8 14 17 20 21 22 21 20 17 14 8 4 2 -0.565453 -0.362745 -0.463339 -0.420699 -0.446141 -0.435145 -0.442261 -0.437718 -0.442277 -0.435105 -0.446236 -0.420548 -0.463728 -0.36204 -0.568711 
8.8 -6.71723 0.548192 2 4 8 14 17 20 21 22 21 20 17 14 8 4 2 -0.56809 -0.36144 -0.464781 -0.420146 -0.446721 -0.434796 -0.442436 -0.437554 -0.442453 -0.434753 -0.446819 -0.419991 -0.465179 -0.360731 -0.571342 
8.9 -6.72196 0.554039 2 4 8 14 17 20 21 22 21 20 17 14 8 4 2 -0.570679 -0.360097 -0.466231 -0.419526 -0.447297 -0.43441 -0.442623 -0.437374 -0.442643 -0.434365 -0.447399 -0.419367 -0.466638 -0.359384 -0.573925 
9 -6.72633 0.559854 2 4 8 14 17 20 21 22 21 20 17 14 8 4 2 -0.573215 -0.35872 -0.467693 -0.418838 -0.447871 -0.43399 -0.442823 -0.437176 -0.442845 -0.433942 -0.447976 -0.418674 -0.468108 -0.358004 -0.576457 
9.1 -6.73037 0.565639 2 4 8 14 17 21 21 23 21 21 17 14 8 4 2 -0.575697 -0.357315 -0.469168 -0.41808 -0.448446 -0.433535 -0.443036 -0.43696 -0.443061 -0.433486 -0.448554 -0.417911 -0.46959 -0.356595 -0.578934 
9.2 -6.73408 0.571394 2 4 8 15 17 21 22 24 22 21 17 15 8 4 2 -0.578122 -0.355884 -0.470658 -0.417252 -0.449023 -0.433048 -0.443263 -0.436724 -0.44329 -0.432996 -0.449134 -0.417078 -0.471087 -0.355162 -0.581356 
9.3 -6.73747 0.577118 2 4 8 15 17 21 23 24 23 21 17 15 8 4 2 -0.580491 -0.354433 -0.472164 -0.416352 -0.449606 -0.432529 -0.443503 -0.436466 -0.443532 -0.432475 -0.449721 -0.416173 -0.472599 -0.353708 -0.583721 
9.4 -6.74058 0.582811 2 4 8 15 17 21 23 24 23 21 17 15 8 4 2 -0.582803 -0.352965 -0.473689 -0.41538 -0.450197 -0.43198 -0.443757 -0.436185 -0.443789 -0.431924 -0.450316 -0.415196 -0.47413 -0.352238 -0.586029 
