time energy SvN bondDim localEnergy 
0 -4.72784 0.0540405 2 4 6 7 7 7 7 7 7 7 7 7 6 4 2 -0.327493 -0.309385 -0.312143 -0.31165 -0.311854 -0.311826 -0.31183 -0.311829 -0.31183 -0.311822 -0.311878 -0.31154 -0.31605 -0.303674 -0.353032 
0.25 -4.72786 0.0540452 2 4 5 7 7 6 7 7 6 7 7 6 6 4 2 -0.327494 -0.309386 -0.312144 -0.311651 -0.311855 -0.311827 -0.311832 -0.311833 -0.311833 -0.311823 -0.311879 -0.311541 -0.316051 -0.303676 -0.353033 
0.5 -4.7367 0.0666769 2 4 5 6 7 6 7 6 6 7 7 6 6 4 2 -0.327496 -0.309388 -0.312156 -0.31166 -0.311896 -0.311295 -0.3151 -0.315132 -0.315174 -0.31122 -0.311877 -0.311542 -0.316053 -0.303678 -0.353034 
0.75 -4.77641 0.147483 2 4 5 6 7 7 8 7 6 8 8 6 6 4 2 -0.327497 -0.309387 -0.312229 -0.311707 -0.312211 -0.307328 -0.333405 -0.325848 -0.333953 -0.306637 -0.311913 -0.311531 -0.316051 -0.303677 -0.353034 
1 -4.83261 0.263614 2 4 5 7 8 8 8 7 6 9 8 6 6 4 2 -0.327496 -0.309379 -0.312335 -0.311795 -0.312851 -0.300693 -0.354871 -0.35209 -0.355948 -0.298694 -0.312229 -0.311479 -0.316044 -0.303671 -0.353034 
1.25 -4.86333 0.380337 2 4 5 7 8 10 9 7 8 9 8 7 6 4 2 -0.327496 -0.309382 -0.312421 -0.311998 -0.312821 -0.30018 -0.350547 -0.393023 -0.352868 -0.296422 -0.312062 -0.311377 -0.316035 -0.303664 -0.353034 
1.5 -4.90396 0.481944 2 4 5 7 8 10 9 8 9 10 9 8 6 4 2 -0.327497 -0.309454 -0.312474 -0.312584 -0.308832 -0.319044 -0.336354 -0.431555 -0.340375 -0.314034 -0.3077 -0.31134 -0.316017 -0.303661 -0.353034 
1.75 -4.95958 0.563116 2 4 5 7 10 10 10 9 9 10 10 8 6 4 2 -0.327492 -0.30957 -0.312465 -0.313693 -0.301112 -0.345339 -0.329315 -0.462796 -0.334676 -0.339425 -0.299332 -0.311711 -0.315958 -0.303664 -0.353031 
2 -4.98963 0.627744 2 4 6 8 10 10 10 9 9 10 10 9 7 4 2 -0.3275 -0.309686 -0.312474 -0.313929 -0.300739 -0.349608 -0.329623 -0.48469 -0.335729 -0.343485 -0.298393 -0.311248 -0.315833 -0.303668 -0.353022 
2.25 -5.03269 0.682646 2 4 6 9 10 10 10 10 10 10 10 9 7 4 2 -0.327569 -0.30979 -0.312764 -0.310263 -0.316912 -0.348839 -0.333931 -0.495587 -0.340317 -0.342979 -0.314673 -0.306614 -0.315782 -0.303659 -0.353011 
2.5 -5.08496 0.730845 2 4 6 9 10 10 10 10 10 10 10 9 7 4 2 -0.327668 -0.309871 -0.313459 -0.303645 -0.334962 -0.355235 -0.341938 -0.495123 -0.3482 -0.350445 -0.332924 -0.298735 -0.316147 -0.303609 -0.353002 
2.75 -5.11094 0.770009 2 4 7 10 10 10 10 10 10 10 10 10 7 4 2 -0.327763 -0.310072 -0.312567 -0.308157 -0.32674 -0.366981 -0.352923 -0.484691 -0.358586 -0.363036 -0.325824 -0.302173 -0.314927 -0.303505 -0.352997 
3 -5.15943 0.796164 2 4 7 10 10 11 11 10 10 10 10 10 7 4 2 -0.32783 -0.310658 -0.307485 -0.328842 -0.318708 -0.379667 -0.365176 -0.46716 -0.369921 -0.376761 -0.31912 -0.322384 -0.3092 -0.303538 -0.352975 
3.25 -5.21236 0.808832 2 4 7 10 10 11 13 13 12 11 10 10 8 4 2 -0.327846 -0.311676 -0.300028 -0.348998 -0.317399 -0.392752 -0.376809 -0.446064 -0.380471 -0.391027 -0.319433 -0.342137 -0.300834 -0.303993 -0.352895 
3.5 -5.23616 0.813353 2 4 8 10 10 11 13 15 13 12 10 10 8 4 2 -0.327971 -0.310733 -0.305382 -0.341381 -0.320662 -0.405692 -0.386308 -0.424881 -0.388857 -0.404874 -0.323628 -0.335049 -0.305511 -0.302487 -0.352747 
3.75 -5.28676 0.818383 2 4 8 10 10 12 15 16 14 12 10 10 8 4 2 -0.328466 -0.305627 -0.325549 -0.337253 -0.325929 -0.417156 -0.392805 -0.406477 -0.394315 -0.417124 -0.329592 -0.331709 -0.3254 -0.296578 -0.352785 
4 -5.33662 0.83071 2 4 8 10 10 14 16 16 17 14 11 10 8 4 2 -0.32927 -0.299696 -0.340285 -0.339913 -0.333595 -0.425824 -0.396166 -0.392733 -0.396794 -0.426403 -0.337627 -0.335723 -0.339811 -0.289573 -0.353203 
4.25 -5.36255 0.85224 2 4 8 11 11 14 17 18 18 15 12 11 8 4 2 -0.327696 -0.30803 -0.328825 -0.346272 -0.343586 -0.430736 -0.396872 -0.384443 -0.396847 -0.431651 -0.347551 -0.34287 -0.328957 -0.29729 -0.350923 
4.5 -5.41404 0.881647 2 4 8 13 12 16 19 19 18 16 12 12 8 4 2 -0.32203 -0.32993 -0.32167 -0.353514 -0.355021 -0.431445 -0.395782 -0.381443 -0.395363 -0.432455 -0.358666 -0.351073 -0.322496 -0.319198 -0.343952 
4.75 -5.45648 0.91792 2 4 8 13 13 17 20 22 20 18 14 13 8 4 2 -0.317205 -0.34158 -0.320545 -0.361908 -0.366793 -0.428105 -0.393853 -0.382884 -0.393283 -0.42901 -0.369939 -0.360422 -0.322251 -0.331154 -0.337549 
5 -5.49152 0.961327 2 4 8 13 14 19 22 24 21 20 15 13 8 4 2 -0.32728 -0.333393 -0.322155 -0.371298 -0.377781 -0.421437 -0.391886 -0.387547 -0.391384 -0.422111 -0.380322 -0.370559 -0.324244 -0.324136 -0.345987 
5.25 -5.55814 1.01108 2 4 8 14 15 20 24 27 26 20 17 14 8 4 2 -0.349197 -0.329889 -0.325259 -0.380897 -0.387007 -0.412616 -0.390397 -0.394121 -0.390143 -0.413006 -0.388927 -0.380823 -0.327696 -0.322085 -0.36608 
5.5 -5.60066 1.06362 2 4 8 14 17 22 26 29 26 22 18 14 8 4 2 -0.354289 -0.331844 -0.330458 -0.389815 -0.393792 -0.403052 -0.389591 -0.401401 -0.389711 -0.403162 -0.395143 -0.390269 -0.333051 -0.325515 -0.369569 
5.75 -5.60074 1.11405 2 4 8 14 18 24 29 33 28 25 19 15 8 4 2 -0.338498 -0.334511 -0.33771 -0.39718 -0.397844 -0.394131 -0.38944 -0.408388 -0.38998 -0.394005 -0.398739 -0.397973 -0.340196 -0.329304 -0.352839 
6 -5.60074 1.15899 2 4 8 16 20 26 33 37 32 26 21 16 8 4 2 -0.324709 -0.336882 -0.346407 -0.40223 -0.399285 -0.386979 -0.389789 -0.414301 -0.390715 -0.386693 -0.399855 -0.40319 -0.34867 -0.332864 -0.338171 
6.25 -5.60074 1.19818 2 4 8 16 21 29 36 40 36 29 23 16 8 4 2 -0.313335 -0.339161 -0.355814 -0.404423 -0.398571 -0.382311 -0.390476 -0.418558 -0.391685 -0.381957 -0.398941 -0.405388 -0.357818 -0.336314 -0.325986 
6.5 -5.60074 1.23371 2 4 8 16 24 33 40 44 39 33 25 16 8 4 2 -0.304862 -0.341259 -0.365174 -0.403551 -0.396356 -0.380374 -0.391399 -0.420754 -0.392743 -0.380043 -0.396635 -0.404377 -0.36698 -0.339471 -0.316761 
6.75 -5.60074 1.26764 2 4 8 16 26 39 43 48 44 37 26 16 8 4 2 -0.299854 -0.34276 -0.373796 -0.399788 -0.393328 -0.380985 -0.392525 -0.420672 -0.393851 -0.380758 -0.393623 -0.400356 -0.375552 -0.34185 -0.311042 
7 -5.60074 1.30034 2 4 8 16 27 42 48 53 48 41 27 16 8 4 2 -0.29891 -0.342946 -0.381145 -0.393667 -0.390086 -0.383646 -0.393856 -0.418327 -0.395025 -0.383577 -0.390499 -0.393891 -0.383051 -0.342714 -0.309401 
7.25 -5.60074 1.33093 2 4 8 16 29 44 55 59 53 44 29 16 8 4 2 -0.302576 -0.340901 -0.386908 -0.385988 -0.387067 -0.387679 -0.395365 -0.413993 -0.396273 -0.387787 -0.387687 -0.385814 -0.389166 -0.341174 -0.312362 
7.5 -5.60074 1.35879 2 4 8 16 30 48 61 64 60 48 30 16 8 4 2 -0.311267 -0.335666 -0.391013 -0.377673 -0.384527 -0.392347 -0.396951 -0.408211 -0.397537 -0.392619 -0.38542 -0.377083 -0.393781 -0.336329 -0.320316 
7.75 -5.60074 1.38436 2 4 8 16 31 51 66 72 66 51 31 16 8 4 2 -0.325164 -0.326436 -0.393609 -0.369612 -0.382579 -0.396937 -0.398431 -0.401718 -0.398676 -0.397334 -0.383781 -0.368622 -0.39697 -0.327433 -0.333438 
8 -5.60074 1.40887 2 4 8 16 32 53 73 79 73 53 32 16 8 4 2 -0.344143 -0.312757 -0.394989 -0.362525 -0.381247 -0.400809 -0.399578 -0.395335 -0.399505 -0.401275 -0.382767 -0.361188 -0.398947 -0.314068 -0.351608 
8.25 -5.60074 1.43368 2 4 8 16 32 56 80 88 79 56 32 16 8 4 2 -0.367724 -0.294679 -0.395487 -0.356882 -0.380523 -0.403419 -0.400187 -0.389816 -0.399851 -0.403889 -0.382346 -0.355288 -0.399995 -0.29629 -0.374364 
